time,pressure1, temperature1,pressure2,temperature2,x,y,z,counter,session
0.0000,0.0333,27.8550,0.0000,27.7000,72,6,-1048,0,1
0.1000,-0.0333,27.9150,0.0167,27.7800,81,-162,-1049,1,1
0.2000,-0.0167,27.9500,0.0333,27.8300,249,-375,-892,2,1
0.3000,0.0167,27.9150,0.0000,27.8150,196,-301,-1076,3,1
0.4000,0.0167,27.9800,0.0333,27.8300,238,-264,-963,4,1
0.5000,-0.0167,28.0000,0.0167,27.8600,478,-357,-769,5,1
0.6000,-0.1167,27.9800,0.0333,27.8300,687,-208,-698,6,1
0.7000,-0.1167,27.9800,0.1000,27.8600,741,-124,-644,7,1
0.8000,-0.0500,28.0000,0.0500,27.8800,656,-70,-707,8,1
0.9000,-0.0500,28.0150,0.0500,27.8800,727,-36,-681,9,1
1.0000,-0.0167,28.0300,0.0167,27.9100,598,97,-910,10,1
1.1000,-0.2000,28.0450,0.1167,27.8950,599,137,-786,11,1
1.2000,-0.3500,28.0800,0.3500,27.9400,367,429,-948,12,1
1.3000,-0.5833,28.0450,0.5167,27.9100,530,360,-1313,13,1
1.4000,-0.4667,28.0600,0.5667,27.8950,210,330,-1189,14,1
1.5000,-0.4333,28.0800,0.4000,27.8950,-108,174,-892,15,1
1.6000,0.1500,28.0600,-0.2500,27.9400,204,112,-500,16,1
1.7000,-0.1500,28.0300,-0.2000,27.9100,153,521,-1806,17,1
1.8000,-0.4667,28.0800,0.1833,27.9600,205,117,-933,18,1
1.9000,-0.3833,28.1100,0.1667,27.9400,-173,121,-1238,19,1
2.0000,-0.5000,28.0800,0.5667,27.9400,302,405,-1263,20,1
2.1000,-0.4667,28.0800,0.4667,27.9600,226,333,-396,21,1
2.2000,-0.5500,28.0800,0.3833,27.9400,1134,561,874,22,1
2.3000,-0.3500,28.1100,0.2667,27.9600,69,942,-276,23,1
2.4000,-0.5833,28.0800,0.5500,27.9250,-51,359,-1044,24,1
2.5000,-0.8167,28.0950,0.7500,27.9250,305,55,-972,25,1
2.6000,-0.5167,28.0600,0.4833,27.9400,229,354,-1130,26,1
2.7000,-0.4833,28.1100,0.4500,27.9900,172,127,-801,27,1
2.8000,-0.3000,28.0800,0.3333,27.9750,278,29,-1072,28,1
2.9000,0.1000,28.0800,0.0667,27.9250,253,206,-1119,29,1
3.0000,-0.0667,28.1250,0.0833,27.9600,350,51,-1002,30,1
3.1000,-0.0833,28.0950,0.1333,27.9400,256,107,-963,31,1
3.2000,0.1333,28.0800,-0.0167,27.9100,136,195,-857,32,1
3.3000,-0.1333,28.1250,0.0667,27.9600,287,115,-1436,33,1
3.4000,-0.1000,28.0800,0.0833,27.9750,258,201,-916,34,1
3.5000,0.2167,28.0950,-0.0667,27.9750,156,109,-714,35,1
3.6000,-0.0333,28.0800,0.0167,27.9750,352,121,-1119,36,1
3.7000,0.0833,28.1100,-0.2167,27.9400,104,-7,-856,37,1
3.8000,-0.0833,28.0800,0.0667,27.9400,261,133,-1256,38,1
3.9000,0.1167,28.0950,-0.0500,27.9750,76,32,-1227,39,1
4.0000,0.1000,28.1100,-0.0167,27.9750,131,-4,-1018,40,1
4.1000,0.0667,28.1100,-0.0333,27.9250,107,29,-912,41,1
4.2000,0.0333,28.1250,0.0000,27.9400,99,62,-1000,42,1
4.3000,-0.0500,28.0600,0.0500,27.9600,174,141,-1164,43,1
4.4000,0.0000,28.1100,0.0000,27.9400,75,9,-1041,44,1
4.5000,0.0167,28.1100,0.0167,27.9750,121,-78,-1059,45,1
4.6000,0.0000,28.1450,0.0333,27.9750,108,-7,-1098,46,1
4.7000,0.0833,28.0950,-0.0167,27.9600,43,-101,-1047,47,1
4.8000,-0.0833,28.1250,0.0667,27.9600,328,-217,-1049,48,1
4.9000,0.0333,28.0950,0.0167,27.9900,124,-162,-966,49,1
5.0000,0.1833,28.1100,-0.1833,27.9600,54,-503,-898,50,1
5.1000,0.3333,28.1100,0.0667,28.0050,264,-941,816,51,1
5.2000,-0.0333,28.1250,-0.0667,27.9750,92,-501,-783,52,1
5.3000,0.2500,28.1100,-0.3167,27.9750,43,-648,-705,53,1
5.4000,0.1667,28.0800,-0.0167,27.9750,-57,-506,-1035,54,1
5.5000,0.1333,28.1450,0.2167,28.0050,-350,-148,-513,55,1
5.6000,0.1833,28.0950,-0.3667,27.9900,-1527,100,6,56,1
5.7000,0.0333,28.1100,0.1500,27.9750,-534,183,849,57,1
5.8000,0.1500,28.1250,-0.0667,27.9600,-522,54,774,58,1
5.9000,0.0000,28.1450,0.0167,27.9250,-482,24,918,59,1
6.0000,0.0000,28.1100,-0.0333,27.9900,-559,-272,996,60,1
6.1000,-0.0667,28.1100,-0.1333,27.9750,-678,-621,827,61,1
6.2000,-0.0500,28.0950,0.0500,27.9600,-486,-462,624,62,1
6.3000,0.1667,28.1250,0.0167,27.9900,-368,-388,464,63,1
6.4000,0.3667,28.0950,-0.1667,27.9750,-1053,49,439,64,1
6.5000,0.2500,28.1100,-0.3500,27.9600,-1647,-167,-179,65,1
6.6000,0.2167,28.1100,-0.1167,27.9400,-1275,133,-531,66,1
6.7000,0.0333,28.1100,0.0500,27.9750,-930,12,-54,67,1
6.8000,0.1000,28.0950,0.0000,27.9900,-982,68,31,68,1
6.9000,0.0667,28.0950,-0.0500,27.9900,-967,-102,164,69,1
7.0000,-0.0167,28.1100,0.0167,27.9400,-920,-129,205,70,1
7.1000,-0.0333,28.0950,-0.0167,27.9750,-1044,-165,108,71,1
7.2000,0.0000,28.1250,-0.0167,27.9750,-999,-273,311,72,1
7.3000,0.4000,28.1100,-0.6000,27.9600,-660,59,963,73,1
7.4000,0.1000,28.0950,-0.1833,27.9900,-142,-20,445,74,1
7.5000,0.0833,28.0950,0.0333,27.9400,166,134,814,75,1
7.6000,0.1333,28.1100,-0.1000,27.9600,444,-3,803,76,1
7.7000,-0.1667,28.1250,0.1000,27.9600,574,-249,229,77,1
7.8000,0.1500,28.1250,0.0167,27.9750,512,-356,355,78,1
7.9000,0.0667,28.1100,-0.1000,27.9750,475,-507,915,79,1
8.0000,-0.0333,28.0950,0.0333,27.9600,-46,-548,747,80,1
8.1000,0.1000,28.1100,-0.2000,27.9600,-306,-666,1089,81,1
8.2000,0.3833,28.1100,-0.3167,27.9600,-333,-531,542,82,1
8.3000,0.0333,28.1250,-0.0333,27.9600,-115,-685,180,83,1
8.4000,0.0833,28.1100,0.0000,27.9900,276,-525,876,84,1
8.5000,0.0000,28.1100,0.0333,27.9600,154,-435,933,85,1
8.6000,0.0000,28.1450,0.0500,27.9900,45,-471,879,86,1
8.7000,-0.0667,28.0950,0.1167,27.9400,277,-710,996,87,1
8.8000,-0.1167,28.1250,0.2167,27.9600,230,-1086,279,88,1
8.9000,0.1167,28.1250,-0.0833,27.9600,-327,-63,611,89,1
9.0000,-0.1500,28.1100,0.1167,27.9400,30,-680,987,90,1
9.1000,0.0833,28.1100,-0.0667,27.9400,174,-621,719,91,1
9.2000,0.0167,28.0950,0.0500,27.9900,133,-591,840,92,1
9.3000,0.0333,28.1100,0.0333,27.9750,-9,-869,570,93,1
9.4000,-0.0333,28.0800,0.0167,27.9400,16,-858,349,94,1
9.5000,0.1500,28.1450,-0.1833,27.9750,-98,-854,223,95,1
9.6000,0.0667,28.1100,0.0000,27.9600,-13,-830,459,96,1
9.7000,-0.0333,28.0950,0.0500,27.9400,78,-1062,390,97,1
9.8000,0.0167,28.0950,0.0000,27.9750,-144,-1181,109,98,1
9.9000,0.0333,28.0950,0.0000,27.9750,-49,-868,152,99,1
10.0000,0.0833,28.1250,-0.0167,27.9750,-251,-1110,87,100,1
10.1000,0.0500,28.1250,-0.0167,27.9750,-477,-998,-20,101,1
10.2000,-0.0500,28.0950,0.2667,27.9900,-204,-530,-269,102,1
10.3000,0.0500,28.0950,0.1833,27.9900,-472,-961,-156,103,1
10.4000,0.1500,28.1250,-0.0333,27.9900,-812,-1035,131,104,1
10.5000,0.0833,28.1100,-0.4833,27.9900,-581,-681,141,105,1
10.6000,0.1667,28.1250,-0.7833,28.0050,-991,-747,321,106,1
10.7000,-0.0167,28.1250,0.2333,27.9600,-845,-398,732,107,1
10.8000,0.0167,28.1450,-0.7000,27.9750,-395,-66,878,108,1
10.9000,0.0000,28.1250,0.8667,27.9750,126,-533,918,109,1
11.0000,0.0833,28.1250,0.1167,27.9750,-31,-238,1110,110,1
11.1000,0.0500,28.1450,0.5333,27.9750,-7,370,127,111,1
11.2000,0.0167,28.1450,0.1000,27.9750,1395,-363,875,112,1
11.3000,-0.0333,28.1250,0.0500,27.9400,294,148,280,113,1
11.4000,1.7333,28.1450,0.1333,27.9900,290,858,138,114,1
11.5000,-0.1667,28.1250,0.1167,28.0050,1730,-42,696,115,1
11.6000,0.1167,28.1250,0.1000,27.9900,1051,280,261,116,1
11.7000,-0.1667,28.1100,0.5833,28.0050,438,-1914,-160,117,1
11.8000,-0.5500,28.1250,0.2833,27.9600,1186,214,-826,118,1
11.9000,-0.1667,28.1250,-0.1167,27.9900,1254,367,-45,119,1
12.0000,0.0333,28.1450,-0.1833,27.9750,523,168,-324,120,1
12.1000,-0.1000,28.1450,0.8833,27.9750,884,-307,-778,121,1
12.2000,0.0167,28.1250,-0.1333,27.9600,876,217,-765,122,1
12.3000,0.0833,28.1600,-0.6000,28.0050,361,729,-882,123,1
12.4000,-0.0833,28.1100,-0.5500,27.9900,-54,1155,-792,124,1
12.5000,-0.2667,28.1600,0.3833,27.9750,210,402,-807,125,1
12.6000,0.0333,28.1250,-0.3833,28.0050,-351,828,-1544,126,1
12.7000,-0.9167,28.1100,-0.2833,28.0250,-204,1353,-110,127,1
12.8000,-0.3000,28.1450,0.7500,27.9900,292,843,-1067,128,1
12.9000,0.2333,28.1600,0.1667,28.0050,915,210,-375,129,1
13.0000,0.2167,28.1600,-0.3833,27.9900,678,526,-183,130,1
13.1000,-0.1500,28.0950,-0.0667,27.9900,758,834,-69,131,1
13.2000,0.0500,28.1450,0.1000,27.9900,980,309,87,132,1
13.3000,-0.1000,28.1450,-0.0500,28.0050,1246,102,237,133,1
13.4000,0.1333,28.1600,0.0000,27.9750,832,252,107,134,1
13.5000,0.0333,28.1600,0.1167,27.9750,1241,74,245,135,1
13.6000,-0.1333,28.1250,0.0333,28.0050,1356,312,397,136,1
13.7000,0.0333,28.1100,-0.0500,28.0250,839,557,-151,137,1
13.8000,-0.0333,28.1250,0.4667,28.0050,1098,773,61,138,1
13.9000,0.0000,28.1600,-0.1333,27.9900,382,813,-321,139,1
14.0000,0.0000,28.1600,-0.0333,28.0400,712,386,-579,140,1
14.1000,-0.1000,28.1450,-0.0500,28.0250,757,218,-304,141,1
14.2000,-0.0333,28.1900,0.6667,27.9900,488,531,-1092,142,1
14.3000,-0.0167,28.1450,-0.2667,28.0050,-124,715,-514,143,1
14.4000,0.1333,28.1600,-0.2667,28.0250,24,1298,-717,144,1
14.5000,-0.0500,28.1750,0.2167,28.0250,31,607,-900,145,1
14.6000,0.0667,28.1900,0.2333,27.9900,-20,1058,-584,146,1
14.7000,0.1000,28.1450,-0.0167,28.0400,275,872,-264,147,1
14.8000,0.3167,28.1750,-0.0333,28.0050,468,961,-310,148,1
14.9000,0.2667,28.1600,0.1500,28.0050,887,241,247,149,1
15.0000,-0.1167,28.1600,-0.0167,27.9900,996,180,681,150,1
15.1000,0.2167,28.1600,0.1333,28.0400,1332,750,804,151,1
15.2000,0.5000,28.1600,0.5167,28.0250,1070,1317,-57,152,1
15.3000,-0.0833,28.1750,-0.1000,28.0250,885,173,72,153,1
15.4000,-0.1333,28.1600,0.1833,28.0250,702,367,-80,154,1
15.5000,0.1000,28.1750,-0.0500,28.0250,628,526,-884,155,1
15.6000,0.1667,28.1450,0.0167,28.0250,519,123,-506,156,1
15.7000,0.1000,28.1750,0.0000,28.0050,737,747,-807,157,1
15.8000,0.6167,28.1600,0.1333,27.9900,1074,381,-238,158,1
15.9000,0.3333,28.1750,0.2000,27.9900,1080,369,984,159,1
16.0000,0.2000,28.1750,0.1167,28.0050,693,407,1038,160,1
16.1000,0.0833,28.1600,0.0500,27.9900,624,243,705,161,1
16.2000,0.1000,28.1900,0.0000,27.9900,218,175,665,162,1
16.3000,-0.3167,28.1750,-0.2667,28.0250,1518,1998,237,163,1
16.4000,0.0833,28.1600,0.0667,28.0250,302,560,645,164,1
16.5000,-0.2667,28.1750,0.4167,27.9900,672,-102,764,165,1
16.6000,-0.0333,28.1750,0.0333,28.0050,196,407,208,166,1
16.7000,0.3000,28.2050,0.0833,27.9900,655,1052,1165,167,1
16.8000,0.2667,28.1600,-0.0500,28.0400,-179,565,819,168,1
16.9000,-0.0500,28.1750,0.1000,28.0050,-267,593,453,169,1
17.0000,-0.3667,28.1900,0.1667,28.0250,320,694,799,170,1
17.1000,-0.1500,28.1600,0.3500,28.0550,348,240,646,171,1
17.2000,-0.1833,28.1750,0.2167,28.0250,354,456,606,172,1
17.3000,0.0833,28.1600,0.1500,28.0250,-18,350,1037,173,1
17.4000,0.0667,28.1900,-0.3667,28.0550,427,20,1140,174,1
17.5000,0.0500,28.2050,0.3167,28.0250,35,315,545,175,1
17.6000,0.0333,28.1750,-0.1000,28.0050,-255,125,718,176,1
17.7000,-0.2000,28.2050,0.2000,28.0250,36,491,763,177,1
17.8000,0.2167,28.2050,-0.1833,28.0250,112,269,794,178,1
17.9000,0.2833,28.1600,-0.2500,28.0250,48,753,821,179,1
18.0000,0.2667,28.2050,0.0000,28.0050,91,623,870,180,1
18.1000,-0.0500,28.1900,0.3000,28.0050,272,495,662,181,1
18.2000,0.1500,28.1750,-0.1000,28.0400,127,535,385,182,1
18.3000,0.1500,28.1600,0.2500,28.0400,913,608,290,183,1
18.4000,-0.4833,28.1750,0.2500,28.0050,687,438,-549,184,1
18.5000,0.0000,28.1900,0.3500,28.0050,614,458,-510,185,1
18.6000,0.1333,28.1750,0.1833,28.0050,873,743,-836,186,1
18.7000,0.3167,28.1900,-0.0667,28.0250,1152,157,-366,187,1
18.8000,-0.2833,28.1750,0.2167,28.0050,1472,321,-708,188,1
18.9000,0.2000,28.1750,0.3500,28.0400,2047,753,-620,189,1
19.0000,-0.1667,28.1900,0.9500,28.0050,1581,965,-961,190,1
19.1000,0.0000,28.1450,0.1167,28.0550,1608,308,-525,191,1
19.2000,-0.0500,28.1750,0.4167,28.0400,1146,-13,-435,192,1
19.3000,-0.2000,28.1750,0.5333,28.0400,890,-654,2047,193,1
19.4000,0.7167,28.1750,-0.0500,28.0250,846,-147,866,194,1
19.5000,0.0500,28.2050,0.0833,28.0550,180,142,729,195,1
19.6000,0.0667,28.1750,0.0000,28.0250,574,43,847,196,1
19.7000,0.0333,28.1600,-0.0167,28.0400,563,89,797,197,1
19.8000,0.0667,28.1900,0.0000,28.0400,558,-33,802,198,1
19.9000,0.0000,28.1750,0.0167,28.0400,734,228,885,199,1
20.0000,-0.0333,28.2050,0.0167,28.0050,652,-64,933,200,1
20.1000,0.0833,28.1750,-0.0167,28.0400,1025,1091,708,201,1
20.2000,0.0667,28.1750,0.0000,28.0400,556,1338,767,202,1
20.3000,-0.0333,28.1750,-0.0167,27.9900,129,-443,492,203,1
20.4000,0.1667,28.1750,0.0000,28.0250,1002,-116,941,204,1
20.5000,0.0500,28.1900,-0.0167,28.0400,719,203,687,205,1
20.6000,-0.0667,28.1750,0.0000,28.0250,677,168,824,206,1
20.7000,0.0333,28.1900,0.0000,28.0250,693,29,724,207,1
20.8000,0.0333,28.1900,0.0000,28.0250,673,17,730,208,1
20.9000,0.0167,28.1900,0.0000,28.0250,663,25,727,209,1
21.0000,0.0333,28.2050,0.0000,28.0250,674,25,755,210,1
21.1000,0.0333,28.1750,0.0000,28.0050,675,28,750,211,1
21.2000,0.0333,28.1900,0.0000,28.0050,663,35,745,212,1
21.3000,0.0333,28.1900,0.0000,28.0050,676,29,747,213,1
21.4000,0.0167,28.1900,0.0000,28.0550,675,23,750,214,1
21.5000,0.0167,28.1900,0.0000,28.0250,681,25,744,215,1
21.6000,0.0167,28.1750,0.0000,28.0050,678,23,747,216,1
21.7000,0.0167,28.1750,0.0000,28.0550,678,24,744,217,1
21.8000,0.0167,28.1600,0.0000,28.0050,677,24,753,218,1
21.9000,0.0167,28.1750,0.0000,27.9900,676,23,745,219,1
22.0000,0.0167,28.1600,0.0000,27.9900,680,26,745,220,1
22.1000,0.0167,28.1450,0.0000,28.0050,675,24,747,221,1
22.2000,0.0333,28.1600,0.0000,28.0250,675,30,750,222,1
22.3000,0.0333,28.1600,0.0000,27.9900,673,27,755,223,1
22.4000,0.0167,28.1600,0.0000,28.0050,676,26,748,224,1
22.5000,0.0333,28.1600,0.0000,28.0250,676,26,750,225,1
22.6000,0.0500,28.1750,0.0000,27.9900,677,26,752,226,1
22.7000,0.0333,28.1900,0.0000,28.0050,680,24,754,227,1
22.8000,0.0167,28.1900,0.0000,28.0050,678,26,752,228,1
22.9000,0.0167,28.1900,0.0000,27.9900,676,26,746,229,1
23.0000,0.0167,28.1750,0.0000,27.9900,672,26,752,230,1
23.1000,0.0167,28.2050,0.0000,28.0050,673,27,749,231,1
23.2000,0.0167,28.1750,0.0000,28.0050,678,24,748,232,1
23.3000,0.0167,28.2050,0.0167,28.0050,676,25,746,233,1
23.4000,0.0333,28.1750,0.0000,28.0050,678,25,747,234,1
23.5000,0.0167,28.1750,0.0000,27.9900,675,27,749,235,1
23.6000,0.0167,28.1750,0.0000,27.9900,677,25,752,236,1
23.7000,0.0167,28.1600,0.0167,28.0250,674,27,757,237,1
23.8000,0.0333,28.1900,0.0000,28.0050,676,28,745,238,1
23.9000,0.0333,28.1600,0.0000,28.0250,674,24,746,239,1
24.0000,0.0333,28.2050,0.0167,28.0250,675,24,750,240,1
24.1000,0.0167,28.1900,0.0000,27.9900,675,24,745,241,1
24.2000,0.0167,28.1750,0.0000,27.9900,675,27,748,242,1
24.3000,0.0167,28.1750,0.0000,27.9750,675,27,747,243,1
24.4000,0.0333,28.1900,0.0000,28.0250,676,25,748,244,1
24.5000,0.0333,28.1750,0.0000,28.0050,675,24,742,245,1
24.6000,0.0333,28.1600,0.0000,27.9900,672,27,751,246,1
24.7000,0.0167,28.1750,0.0000,27.9900,677,27,756,247,1
24.8000,0.0333,28.1750,0.0000,27.9900,675,25,750,248,1
24.9000,0.0167,28.1450,0.0000,28.0050,681,26,744,249,1
25.0000,0.0333,28.1750,0.0000,27.9900,690,9,732,250,1
25.1000,0.0333,28.1750,0.0000,28.0250,685,21,738,251,1
25.2000,0.0167,28.1750,0.0000,27.9750,681,23,745,252,1
25.3000,-0.0333,28.1750,-0.0167,28.0050,678,29,754,253,1
25.4000,0.1000,28.1600,0.1833,27.9750,1086,164,771,254,1
25.5000,-0.1333,28.1750,-0.0500,27.9900,633,-572,-1109,255,1
25.6000,0.3667,28.1600,-0.5667,27.9750,738,1267,-897,0,1
25.7000,0.0667,28.1600,0.2833,28.0050,924,-239,2047,1,1
25.8000,0.1667,28.1900,-0.0167,27.9900,953,440,6,2,1
25.9000,0.1167,28.1600,-0.0333,28.0050,960,153,306,3,1
26.0000,-0.0667,28.1750,0.0500,28.0050,935,-540,-287,4,1
26.1000,0.1333,28.1750,0.0167,28.0050,633,-211,896,5,1
26.2000,0.0500,28.1900,0.0167,27.9600,636,364,816,6,1
26.3000,0.0000,28.1900,0.0333,27.9900,537,14,882,7,1
26.4000,0.0167,28.1900,0.0500,27.9600,846,-65,653,8,1
26.5000,0.0167,28.2250,0.0167,27.9900,808,126,531,9,1
26.6000,0.0500,28.1900,0.0000,27.9900,900,49,453,10,1
26.7000,0.0500,28.1750,0.0000,27.9750,898,30,345,11,1
26.8000,0.0667,28.2050,0.0000,27.9250,884,78,439,12,1
26.9000,0.0167,28.1900,0.0333,27.9900,870,32,447,13,1
27.0000,0.0000,28.1900,0.0000,27.9750,856,78,529,14,1
27.1000,-0.0167,28.1450,0.0167,27.9750,883,-42,540,15,1
27.2000,0.0667,28.1600,0.0333,27.9600,677,137,675,16,1
27.3000,0.1167,28.1900,-0.0167,27.9900,633,234,676,17,1
27.4000,0.0167,28.1600,0.0500,27.9900,714,9,769,18,1
27.5000,0.0333,28.1750,-0.0167,27.9750,752,9,687,19,1
27.6000,0.0167,28.1600,0.0167,27.9900,744,-18,723,20,1
27.7000,0.0500,28.1600,0.0167,27.9750,720,16,693,21,1
27.8000,0.0500,28.2050,0.0000,27.9900,716,19,718,22,1
27.9000,0.0500,28.1750,0.0000,27.9600,720,27,711,23,1
28.0000,0.0333,28.1450,0.0167,27.9750,718,25,704,24,1
28.1000,0.0333,28.1900,0.0000,27.9900,714,30,714,25,1
28.2000,0.0333,28.1750,0.0000,28.0250,713,24,708,26,1
28.3000,0.0333,28.1600,0.0000,27.9750,712,19,715,27,1
28.4000,0.0333,28.1600,0.0000,27.9750,715,22,709,28,1
28.5000,0.0333,28.1750,0.0000,27.9600,710,26,708,29,1
28.6000,0.0333,28.1600,0.0000,27.9400,711,20,714,30,1
28.7000,0.0333,28.1750,0.0000,27.9600,715,19,714,31,1
28.8000,0.0333,28.1600,0.0000,27.9750,671,52,725,32,1
28.9000,0.0333,28.1900,0.0000,28.0250,709,21,723,33,1
29.0000,0.0333,28.1750,0.0000,27.9750,711,27,720,34,1
29.1000,0.0333,28.1750,0.0000,27.9600,711,20,715,35,1
29.2000,0.0333,28.1750,0.0000,27.9600,705,23,727,36,1
29.3000,0.0333,28.1450,0.0000,27.9750,711,22,717,37,1
29.4000,0.0333,28.1750,0.0000,28.0050,711,19,734,38,1
29.5000,0.0333,28.1900,0.0000,27.9750,711,20,717,39,1
29.6000,0.0333,28.1450,0.0000,27.9750,705,18,723,40,1
29.7000,0.0333,28.1750,0.0000,27.9900,695,41,726,41,1
29.8000,0.0333,28.1900,0.0000,27.9400,702,22,714,42,1
29.9000,0.0333,28.1750,0.0000,27.9600,704,21,719,43,1
30.0000,0.0333,28.1600,0.0000,27.9400,704,21,723,44,1
30.1000,0.0333,28.1750,0.0000,27.9750,711,19,715,45,1
30.2000,0.0333,28.1450,0.0000,27.9750,702,19,727,46,1
30.3000,0.0333,28.1600,0.0000,27.9900,715,11,710,47,1
30.4000,0.0333,28.1750,0.0000,27.9250,703,20,720,48,1
30.5000,0.0333,28.1750,0.0000,27.9600,705,24,723,49,1
30.6000,0.0333,28.1600,0.0000,27.9600,705,18,723,50,1
30.7000,0.0333,28.1750,0.0000,27.9400,707,38,732,51,1
30.8000,0.0167,28.1750,0.0000,27.9100,704,19,732,52,1
30.9000,0.0167,28.1750,0.0000,28.0050,705,19,719,53,1
31.0000,0.0167,28.1900,0.0000,27.9900,704,20,716,54,1
31.1000,0.0167,28.1600,0.0167,27.9600,704,25,724,55,1
31.2000,0.0167,28.1600,0.0000,27.9600,703,19,724,56,1
31.3000,0.0167,28.1450,0.0000,27.9600,705,20,720,57,1
31.4000,0.0167,28.1750,0.0000,27.9600,692,20,728,58,1
31.5000,0.0167,28.1750,0.0000,27.9750,705,20,718,59,1
31.6000,0.0167,28.1450,0.0000,27.9750,702,18,722,60,1
31.7000,0.0333,28.1600,0.0000,27.9600,705,18,721,61,1
31.8000,0.0333,28.1900,0.0167,27.9750,705,20,721,62,1
31.9000,0.0333,28.1600,0.0167,27.9600,704,21,723,63,1
32.0000,0.0333,28.1900,0.0167,27.9600,704,18,725,64,1
32.1000,0.0167,28.1750,0.0167,27.9600,706,17,723,65,1
32.2000,0.0167,28.1600,0.0167,27.9600,706,18,724,66,1
32.3000,0.0000,28.1450,0.0167,27.9600,705,24,732,67,1
32.4000,0.0167,28.1600,0.0167,27.9250,701,18,728,68,1
32.5000,0.0333,28.1450,0.0167,27.9750,700,19,723,69,1
32.6000,0.0333,28.1450,0.0167,27.9600,703,21,720,70,1
32.7000,0.0167,28.1600,0.0167,27.9600,701,19,719,71,1
32.8000,0.0333,28.1600,0.0167,27.9250,699,15,715,72,1
32.9000,0.0167,28.1600,0.0167,27.9400,701,19,726,73,1
33.0000,0.0167,28.1750,0.0167,27.9600,702,18,728,74,1
33.1000,0.0167,28.1600,0.0167,27.9750,704,18,721,75,1
33.2000,0.0167,28.1450,0.0000,27.9400,703,21,724,76,1
33.3000,0.0333,28.1600,0.0000,27.9600,703,19,724,77,1
33.4000,0.0333,28.1250,0.0000,27.9600,702,19,723,78,1
33.5000,0.0333,28.1250,0.0000,27.9250,702,17,729,79,1
33.6000,0.0333,28.1450,0.0000,27.9250,701,20,724,80,1
33.7000,0.0333,28.1600,0.0000,27.9600,701,17,719,81,1
33.8000,0.0333,28.1450,0.0000,27.9100,697,19,730,82,1
33.9000,0.0333,28.1600,0.0000,27.9400,705,19,729,83,1
34.0000,0.0333,28.1750,0.0000,27.9750,704,18,726,84,1
34.1000,0.0333,28.1750,0.0000,27.9600,703,18,723,85,1
34.2000,0.0333,28.1750,0.0000,27.9400,704,16,726,86,1
34.3000,0.0167,28.1450,0.0000,27.9400,700,17,725,87,1
34.4000,0.0167,28.1600,0.0000,27.9400,702,17,724,88,1
34.5000,0.0333,28.1100,0.0000,27.9400,702,18,727,89,1
34.6000,0.0167,28.1600,0.0000,27.9600,700,18,726,90,1
34.7000,0.0667,28.1600,0.0167,27.9100,702,15,725,91,1
34.8000,0.0667,28.1750,0.0167,27.9250,704,18,727,92,1
34.9000,0.0333,28.1900,0.0167,27.9250,702,19,720,93,1
35.0000,0.0333,28.0950,0.0167,27.9100,701,17,724,94,1
35.1000,0.0167,28.1450,0.0000,27.8950,703,18,723,95,1
35.2000,0.0000,28.1250,0.0000,27.9100,702,18,723,96,1
35.3000,0.0000,28.1100,0.0000,27.9100,703,14,729,97,1
35.4000,-0.0167,28.1600,0.0000,27.9400,705,14,727,98,1
35.5000,0.0000,28.1750,0.0000,27.9100,705,16,717,99,1
35.6000,0.0167,28.1450,0.0000,27.9600,704,15,726,100,1
35.7000,0.0000,28.1100,0.0000,27.9250,700,13,717,101,1
35.8000,0.0000,28.1750,0.0000,27.9600,706,17,724,102,1
35.9000,0.0000,28.1600,0.0167,27.9600,702,16,725,103,1
36.0000,0.0000,28.1600,0.0167,27.9250,702,18,723,104,1
36.1000,0.0000,28.1600,0.0167,27.9250,702,19,723,105,1
36.2000,0.0000,28.1100,0.0000,27.9100,706,15,720,106,1
36.3000,0.0000,28.1600,0.0000,27.9250,702,21,725,107,1
36.4000,0.0000,28.1250,0.0167,27.9100,699,18,723,108,1
36.5000,0.0000,28.1250,0.0167,27.9400,700,16,724,109,1
36.6000,0.0000,28.1450,0.0000,27.8950,705,18,738,110,1
36.7000,0.0000,28.1450,0.0000,27.9100,706,18,729,111,1
36.8000,0.0000,28.1600,0.0167,27.9250,700,16,729,112,1
36.9000,0.0167,28.1250,0.0167,27.9400,702,15,724,113,1
37.0000,0.0167,28.1450,0.0167,27.8950,707,18,725,114,1
37.1000,0.0167,28.1750,0.0167,27.9250,699,18,720,115,1
37.2000,0.0167,28.1600,0.0000,27.9250,697,18,726,116,1
37.3000,0.0167,28.1600,0.0000,27.9250,700,15,723,117,1
37.4000,0.0167,28.0950,0.0000,27.8950,700,15,725,118,1
37.5000,0.0167,28.1600,0.0000,27.9250,702,15,728,119,1
37.6000,0.0167,28.1450,0.0000,27.9250,702,18,723,120,1
37.7000,0.0167,28.1600,0.0000,27.9250,697,18,723,121,1
37.8000,0.0167,28.1750,0.0000,27.9600,704,15,729,122,1
37.9000,0.0333,28.1450,0.0000,27.9100,701,17,730,123,1
38.0000,0.0167,28.1250,0.0000,27.9100,699,19,724,124,1
38.1000,0.0167,28.1250,0.0000,27.8950,701,19,725,125,1
38.2000,0.0000,28.1600,0.0000,27.9250,699,12,726,126,1
38.3000,0.0167,28.1450,0.0000,27.9250,702,18,727,127,1
38.4000,0.0333,28.1100,0.0000,27.9600,698,13,725,128,1
38.5000,0.0333,28.1600,0.0000,27.9600,702,18,725,129,1
38.6000,0.0333,28.1250,0.0000,27.9100,699,19,727,130,1
38.7000,0.0167,28.1750,0.0000,27.9400,699,18,727,131,1
38.8000,0.0167,28.1100,0.0000,27.8800,699,15,726,132,1
38.9000,0.0333,28.1250,0.0000,27.8950,702,16,728,133,1
39.0000,0.0333,28.1450,0.0000,27.8950,700,16,727,134,1
39.1000,0.0333,28.1450,0.0000,27.9400,698,17,724,135,1
39.2000,0.0333,28.1250,0.0000,27.9100,701,15,731,136,1
39.3000,0.0333,28.1750,0.0000,27.9100,701,15,729,137,1
39.4000,0.0333,28.1450,0.0000,27.9250,702,9,729,138,1
39.5000,0.0333,28.1450,0.0000,27.9100,700,15,724,139,1
39.6000,0.0333,28.1250,0.0000,27.8950,699,17,725,140,1
39.7000,0.0333,28.1100,0.0000,27.9250,704,17,731,141,1
39.8000,0.0333,28.1250,0.0000,27.9100,699,15,731,142,1
39.9000,0.0333,28.1250,0.0000,27.8950,698,18,730,143,1
40.0000,0.0333,28.1450,0.0000,27.9250,704,15,727,144,1
40.1000,0.0500,28.1250,0.0000,27.8800,702,15,726,145,1
40.2000,0.0500,28.1250,0.0000,27.9100,699,16,728,146,1
40.3000,0.0500,28.1250,0.0000,27.9100,703,14,730,147,1
40.4000,0.0500,28.1450,0.0000,27.8950,697,18,729,148,1
40.5000,0.0333,28.1600,0.0000,27.9100,701,19,717,149,1
40.6000,0.0333,28.1450,0.0000,27.9100,699,17,726,150,1
40.7000,0.0333,28.1450,0.0000,27.9100,698,15,727,151,1
40.8000,0.0333,28.1250,0.0000,27.8950,698,16,727,152,1
40.9000,0.0333,28.1100,0.0000,27.8600,699,18,729,153,1
41.0000,0.0333,28.1250,0.0000,27.9100,699,15,730,154,1
41.1000,0.0333,28.1250,0.0000,27.8800,701,17,729,155,1
41.2000,0.0167,28.1100,0.0000,27.8800,699,15,729,156,1
41.3000,0.0167,28.1450,0.0000,27.8950,699,15,728,157,1
41.4000,0.0167,28.1450,0.0000,27.8600,701,16,728,158,1
41.5000,0.0167,28.1250,0.0000,27.9250,698,16,728,159,1
41.6000,0.0167,28.1250,0.0000,27.8950,694,14,724,160,1
41.7000,0.0167,28.1450,0.0000,27.8800,699,15,732,161,1
41.8000,0.0167,28.1450,0.0000,27.9100,700,19,731,162,1
41.9000,0.0333,28.1450,0.0000,27.9100,699,16,727,163,1
42.0000,0.0167,28.1250,0.0000,27.8800,697,18,726,164,1
42.1000,0.0000,28.1250,0.0000,27.9100,700,14,726,165,1
42.2000,0.0167,28.1100,0.0167,27.8950,699,17,727,166,1
42.3000,0.0000,28.1100,0.0000,27.8800,699,14,726,167,1
42.4000,0.0000,28.1250,0.0167,27.8800,696,15,726,168,1
42.5000,0.0000,28.1100,0.0167,27.9100,699,17,733,169,1
42.6000,0.0000,28.1600,0.0167,27.8950,697,15,726,170,1
42.7000,0.0167,28.1450,0.0167,27.8600,696,16,725,171,1
42.8000,0.0000,28.1450,0.0000,27.8800,700,16,726,172,1
42.9000,0.0167,28.1450,0.0000,27.8800,697,18,729,173,1
43.0000,0.0167,28.1250,0.0000,27.8450,697,17,731,174,1
43.1000,0.0167,28.1450,0.0000,27.8950,696,16,726,175,1
43.2000,0.0167,28.1250,0.0000,27.8600,697,14,732,176,1
43.3000,0.0333,28.1250,0.0000,27.8950,700,17,731,177,1
43.4000,0.0167,28.1250,0.0000,27.9100,702,16,728,178,1
43.5000,0.0167,28.1100,0.0000,27.8950,699,16,725,179,1
43.6000,0.0167,28.1450,0.0000,27.8800,698,17,727,180,1
43.7000,0.0167,28.1100,0.0000,27.8950,696,12,732,181,1
43.8000,0.0167,28.1250,0.0000,27.8950,701,15,729,182,1
43.9000,0.0167,28.1250,0.0000,27.8800,698,16,733,183,1
44.0000,0.0167,28.1250,0.0000,27.8800,696,16,729,184,1
44.1000,0.0167,28.1100,0.0000,27.8600,701,17,728,185,1
44.2000,0.0167,28.0950,0.0000,27.8600,718,-18,720,186,1
44.3000,0.0167,28.1100,0.0000,27.8600,688,16,744,187,1
44.4000,0.0167,28.1250,0.0000,27.8600,678,12,745,188,1
44.5000,0.0167,28.1450,0.0000,27.8800,687,13,744,189,1
44.6000,0.0167,28.1100,0.0167,27.8600,676,9,755,190,1
44.7000,0.0167,28.1450,0.0167,27.8600,666,16,764,191,1
44.8000,0.0167,28.1100,0.0000,27.8600,688,16,727,192,1
44.9000,0.0167,28.1450,0.0000,27.8800,681,13,752,193,1
45.0000,0.0333,28.1600,0.0000,27.8300,682,16,746,194,1
45.1000,0.0167,28.1250,0.0000,27.8600,687,16,745,195,1
45.2000,0.0333,28.1100,0.0000,27.8800,692,20,732,196,1
45.3000,0.0333,28.1450,0.0000,27.8600,684,15,741,197,1
45.4000,0.0333,28.1250,0.0000,27.8600,684,11,735,198,1
45.5000,0.0333,28.1100,0.0000,27.8600,692,29,724,199,1
45.6000,0.0333,28.0800,0.0167,27.8600,673,15,745,200,1
45.7000,0.0333,28.1250,0.0000,27.8600,695,30,733,201,1
45.8000,0.0167,28.1450,0.0167,27.8800,669,7,756,202,1
45.9000,0.0333,28.1100,0.0000,27.8450,699,38,708,203,1
46.0000,0.0167,28.1100,0.0167,27.8600,681,-8,752,204,1
46.1000,0.0333,28.0950,0.0000,27.8450,691,27,737,205,1
46.2000,0.0167,28.0800,0.0000,27.8300,690,18,735,206,1
46.3000,0.0167,28.1100,0.0000,27.8600,684,18,741,207,1
46.4000,0.0167,28.1100,0.0000,27.8450,689,26,738,208,1
46.5000,0.0167,28.1250,0.0000,27.8450,685,21,745,209,1
46.6000,0.0167,28.0600,0.0000,27.8600,687,24,735,210,1
46.7000,0.0167,28.0600,0.0000,27.8450,689,24,738,211,1
46.8000,0.0167,28.0950,0.0000,27.8300,687,23,743,212,1
46.9000,0.0167,28.1450,0.0000,27.8800,692,22,733,213,1
47.0000,0.0167,28.1250,0.0000,27.8600,689,24,737,214,1
47.1000,0.0167,28.1250,0.0000,27.8450,687,20,738,215,1
47.2000,0.0333,28.0950,0.0000,27.8800,687,24,736,216,1
47.3000,0.0167,28.0950,0.0000,27.8450,687,24,737,217,1
47.4000,0.0000,28.0800,0.0000,27.8300,689,24,738,218,1
47.5000,0.0000,28.0800,0.0000,27.8600,690,24,741,219,1
47.6000,0.0167,28.0950,0.0000,27.8600,690,26,741,220,1
47.7000,0.0167,28.1100,0.0000,27.8600,688,24,738,221,1
47.8000,0.0500,28.0800,0.0000,27.8150,690,23,738,222,1
47.9000,0.0333,28.1100,0.0000,27.8600,692,23,738,223,1
48.0000,0.0333,28.0950,0.0000,27.8600,688,24,738,224,1
48.1000,0.0333,28.0950,0.0000,27.8300,691,24,738,225,1
48.2000,0.0333,28.0950,0.0000,27.8300,689,24,738,226,1
48.3000,0.0333,28.0950,0.0000,27.8150,690,24,739,227,1
48.4000,0.0333,28.0800,0.0000,27.8800,690,25,738,228,1
48.5000,0.0167,28.0600,0.0000,27.8450,689,26,737,229,1
48.6000,0.0333,28.0950,0.0000,27.8450,693,23,734,230,1
48.7000,0.0167,28.0600,0.0000,27.8450,691,25,736,231,1
48.8000,0.0167,28.0950,0.0000,27.8450,692,27,732,232,1
48.9000,0.0333,28.0600,0.0000,27.7800,690,23,734,233,1
49.0000,0.0333,28.1100,0.0000,27.8150,693,27,732,234,1
49.1000,0.0167,28.1100,0.0000,27.8450,691,27,731,235,1
49.2000,0.0167,28.1100,0.0000,27.8300,693,27,737,236,1
49.3000,0.0333,28.1250,0.0000,27.8150,693,26,737,237,1
49.4000,0.0167,28.0450,0.0000,27.8150,690,26,734,238,1
49.5000,0.0167,28.0950,0.0000,27.8300,695,27,736,239,1
49.6000,0.0167,28.0800,0.0000,27.8300,694,27,732,240,1
49.7000,0.0167,28.1100,0.0000,27.8300,689,27,734,241,1
49.8000,0.0000,28.0950,0.0000,27.8300,694,27,734,242,1
49.9000,0.0000,28.0950,0.0000,27.8300,695,29,737,243,1
50.0000,-0.0167,28.0800,0.0000,27.8300,695,28,732,244,1
50.1000,0.0000,28.0800,0.0000,27.8300,694,27,732,245,1
50.2000,0.0000,28.0800,0.0000,27.8150,696,29,731,246,1
50.3000,0.0000,28.0950,0.0000,27.8300,695,27,735,247,1
50.4000,0.0000,28.0600,0.0000,27.8300,691,27,732,248,1
50.5000,0.0000,28.0800,0.0000,27.8150,696,29,735,249,1
50.6000,0.0000,28.0800,0.0000,27.8450,696,30,732,250,1
50.7000,0.0000,28.1100,0.0000,27.8300,695,29,730,251,1
50.8000,0.0000,28.0600,0.0000,27.8150,694,29,732,252,1
50.9000,0.0000,28.0950,0.0000,27.8300,695,24,728,253,1
51.0000,0.0000,28.0800,0.0000,27.7950,696,29,731,254,1
51.1000,0.0000,28.1100,0.0000,27.7950,697,27,731,255,1
51.2000,0.0167,28.0600,0.0000,27.7800,695,28,731,0,1
51.3000,0.0167,28.0600,0.0000,27.8300,695,29,730,1,1
51.4000,0.0167,28.0950,0.0000,27.8300,696,29,726,2,1
51.5000,0.0167,28.1100,0.0000,27.8150,696,30,728,3,1
51.6000,0.0167,28.0800,0.0000,27.8150,681,27,728,4,1
51.7000,0.0167,28.0600,0.0000,27.8150,696,26,735,5,1
51.8000,0.0000,28.0800,0.0000,27.8300,693,30,741,6,1
51.9000,0.0167,28.0800,0.0000,27.8150,696,30,734,7,1
52.0000,0.0167,28.0450,0.0000,27.8150,694,36,732,8,1
52.1000,0.0000,28.0600,0.0000,27.7950,697,31,732,9,1
52.2000,0.0000,28.0450,0.0000,27.7800,694,31,734,10,1
52.3000,0.0000,28.0600,0.0000,27.8150,696,30,732,11,1
52.4000,0.0000,28.0150,0.0000,27.7800,691,24,726,12,1
52.5000,0.0167,28.0300,0.0000,27.8150,699,38,735,13,1
52.6000,0.0167,28.0450,0.0000,27.8150,694,30,731,14,1
52.7000,0.0167,28.0450,0.0000,27.8150,697,34,732,15,1
52.8000,0.0167,28.0450,0.0000,27.8150,697,31,728,16,1
52.9000,0.0167,28.0950,0.0000,27.7950,698,32,732,17,1
53.0000,0.0167,28.0600,0.0000,27.7650,699,31,734,18,1
53.1000,0.0167,28.0450,0.0000,27.7650,695,31,730,19,1
53.2000,0.0167,28.0600,0.0000,27.7500,695,30,726,20,1
53.3000,0.0167,28.0800,0.0000,27.7650,696,32,733,21,1
53.4000,0.0167,28.0600,0.0000,27.8150,697,32,727,22,1
53.5000,0.0167,28.1100,0.0000,27.7800,699,32,735,23,1
53.6000,0.0167,28.0150,0.0000,27.7950,697,33,735,24,1
53.7000,0.0167,28.0600,0.0000,27.7800,696,33,730,25,1
53.8000,0.0167,28.0800,0.0000,27.8150,696,30,731,26,1
53.9000,0.0167,28.0600,0.0000,27.7800,697,32,724,27,1
54.0000,0.0333,28.0300,0.0000,27.7950,690,30,735,28,1
54.1000,0.0333,28.0600,0.0000,27.7800,695,30,734,29,1
54.2000,0.0333,28.0600,0.0000,27.7800,697,35,731,30,1
54.3000,0.0333,28.0450,0.0000,27.7800,696,34,726,31,1
54.4000,0.0333,28.0600,0.0000,27.7800,698,36,732,32,1
54.5000,0.0167,28.0600,0.0000,27.7650,695,33,727,33,1
54.6000,0.0167,28.0600,0.0000,27.8150,696,35,728,34,1
54.7000,0.0167,28.0450,0.0000,27.7800,696,33,729,35,1
54.8000,0.0167,28.0600,0.0000,27.7950,696,35,729,36,1
54.9000,0.0167,28.0450,0.0000,27.7650,699,36,726,37,1
55.0000,0.0167,28.0600,0.0000,27.7650,702,39,733,38,1
55.1000,0.0167,28.0450,0.0000,27.7950,698,35,728,39,1
55.2000,0.0167,28.0800,0.0000,27.7500,696,33,726,40,1
55.3000,0.0167,28.0450,0.0000,27.7350,696,34,731,41,1
55.4000,0.0167,28.0150,0.0000,27.7650,696,35,739,42,1
55.5000,0.0167,28.0450,0.0000,27.7500,696,37,728,43,1
55.6000,0.0167,28.0300,0.0000,27.7800,701,36,735,44,1
55.7000,0.0167,28.0300,0.0000,27.7800,699,36,728,45,1
55.8000,0.0167,28.0300,0.0000,27.7950,694,35,730,46,1
55.9000,0.0167,28.0450,0.0000,27.7950,696,35,731,47,1
56.0000,0.0167,28.0450,0.0000,27.7950,696,34,729,48,1
56.1000,0.0167,28.0450,0.0000,27.7650,696,35,729,49,1
56.2000,0.0167,28.0450,0.0000,27.7800,698,36,732,50,1
56.3000,0.0167,28.0300,0.0000,27.7800,699,36,727,51,1
56.4000,0.0167,28.0300,0.0000,27.7500,699,36,737,52,1
56.5000,0.0167,28.0300,0.0000,27.7800,696,34,723,53,1
56.6000,0.0167,28.0450,0.0000,27.7650,699,38,725,54,1
56.7000,0.0167,28.0300,0.0000,27.7650,696,36,727,55,1
56.8000,0.0167,28.0150,0.0000,27.7500,696,36,729,56,1
56.9000,0.0167,28.0450,0.0000,27.7800,700,36,729,57,1
57.0000,0.0167,28.0450,0.0000,27.7800,698,38,729,58,1
57.1000,0.0167,28.0300,0.0000,27.7800,698,34,728,59,1
57.2000,0.0167,27.9800,0.0000,27.7650,698,35,733,60,1
57.3000,0.0167,28.0800,0.0000,27.7500,701,33,728,61,1
57.4000,0.0167,28.0300,0.0000,27.7650,696,36,735,62,1
57.5000,0.0167,28.0950,0.0000,27.7650,697,33,728,63,1
57.6000,0.0167,28.0300,0.0000,27.7800,696,37,731,64,1
57.7000,0.0167,28.0150,0.0000,27.7650,703,36,727,65,1
57.8000,0.0167,28.0600,0.0000,27.7500,696,36,727,66,1
57.9000,0.0167,28.0300,0.0000,27.7500,698,33,730,67,1
58.0000,0.0167,28.0300,0.0000,27.7500,701,37,731,68,1
58.1000,0.0167,28.0000,0.0000,27.7500,697,37,728,69,1
58.2000,0.0167,28.0450,0.0167,27.7500,697,35,728,70,1
58.3000,0.0167,28.0300,0.0000,27.7350,700,37,732,71,1
58.4000,0.0167,28.0300,0.0000,27.7500,698,37,726,72,1
58.5000,0.0167,28.0300,0.0167,27.7500,697,37,730,73,1
58.6000,0.0167,28.0450,0.0167,27.7350,698,37,725,74,1
58.7000,0.0167,28.0300,0.0167,27.7650,696,36,726,75,1
58.8000,0.0000,28.0150,0.0000,27.7350,698,35,722,76,1
58.9000,0.0167,28.0150,0.0000,27.7650,702,38,727,77,1
59.0000,0.0167,28.0800,0.0000,27.7500,699,39,723,78,1
59.1000,0.0167,28.0300,0.0000,27.7350,696,37,732,79,1
59.2000,0.0167,28.0450,0.0000,27.7500,697,37,730,80,1
59.3000,0.0167,28.0150,0.0000,27.7650,698,36,733,81,1
59.4000,0.0167,28.0150,0.0000,27.7150,696,36,732,82,1
59.5000,0.0167,28.0150,0.0000,27.7650,700,36,730,83,1
59.6000,0.0167,28.0150,0.0000,27.7150,700,37,723,84,1
59.7000,0.0167,28.0150,0.0000,27.7150,700,36,732,85,1
59.8000,0.0000,28.0150,0.0000,27.7350,702,36,728,86,1
59.9000,0.0167,28.0150,0.0000,27.7350,696,36,729,87,1
60.0000,0.0167,28.0300,0.0000,27.7150,699,34,727,88,1
60.1000,0.0000,28.0150,0.0000,27.7500,699,36,726,89,1
60.2000,0.0000,28.0300,0.0000,27.7350,699,38,732,90,1
60.3000,0.0000,28.0300,0.0167,27.7500,696,34,729,91,1
60.4000,0.0167,27.9800,0.0000,27.7500,703,36,735,92,1
60.5000,0.0000,28.0150,0.0000,27.7150,699,39,726,93,1
60.6000,0.0167,27.9650,0.0000,27.7150,702,38,731,94,1
60.7000,0.0000,28.0300,0.0000,27.7350,700,37,729,95,1
60.8000,0.0167,28.0000,0.0000,27.7000,699,36,731,96,1
60.9000,0.0000,27.9800,0.0000,27.7000,700,37,729,97,1
61.0000,0.0167,28.0000,0.0000,27.7350,697,37,730,98,1
61.1000,0.0167,28.0150,0.0000,27.7150,699,34,731,99,1
61.2000,0.0167,28.0300,0.0000,27.7350,697,38,733,100,1
61.3000,0.0167,28.0300,0.0000,27.7150,699,36,731,101,1
61.4000,0.0167,28.0150,0.0167,27.7500,699,38,728,102,1
61.5000,0.0167,27.9800,0.0000,27.7350,696,36,732,103,1
61.6000,0.0167,28.0450,0.0000,27.7000,699,37,728,104,1
61.7000,0.0333,28.0150,0.0000,27.7000,699,39,730,105,1
61.8000,0.0333,28.0000,0.0000,27.7150,699,39,729,106,1
61.9000,0.0333,28.0000,0.0000,27.7150,698,36,729,107,1
62.0000,0.0167,28.0450,0.0000,27.7350,700,35,724,108,1
62.1000,0.0167,28.0150,0.0000,27.7000,696,37,732,109,1
62.2000,0.0167,28.0000,0.0000,27.7150,698,33,735,110,1
62.3000,0.0167,28.0150,0.0000,27.7000,699,36,729,111,1
62.4000,0.0000,27.9650,0.0000,27.7350,699,38,730,112,1
62.5000,0.0000,28.0150,0.0000,27.7150,697,37,727,113,1
62.6000,0.0000,27.9650,0.0000,27.7000,696,36,727,114,1
62.7000,0.0167,27.9800,0.0000,27.6850,698,36,728,115,1
62.8000,0.0000,28.0300,0.0000,27.7000,699,36,733,116,1
62.9000,0.0000,28.0000,0.0000,27.7150,697,36,728,117,1
63.0000,0.0000,28.0150,0.0000,27.7000,699,35,728,118,1
63.1000,-0.0167,28.0000,0.0000,27.7000,701,39,732,119,1
63.2000,0.0000,28.0300,0.0000,27.7000,699,36,729,120,1
63.3000,0.0000,28.0000,0.0000,27.7000,698,34,732,121,1
63.4000,0.0000,28.0150,0.0000,27.7150,696,35,734,122,1
63.5000,-0.0167,27.9800,0.0000,27.7000,700,38,725,123,1
63.6000,0.0000,28.0000,0.0000,27.6850,697,37,733,124,1
63.7000,-0.0167,28.0000,0.0000,27.6700,696,37,726,125,1
63.8000,0.0000,28.0000,0.0167,27.7500,699,37,728,126,1
63.9000,0.0000,28.0000,0.0000,27.7000,696,37,731,127,1
64.0000,0.0000,28.0000,0.0167,27.7000,699,36,726,128,1
64.1000,0.0000,28.0000,0.0000,27.7000,701,38,729,129,1
64.2000,-0.0167,27.9800,0.0167,27.7000,698,39,732,130,1
64.3000,0.0000,28.0000,0.0167,27.7000,699,37,727,131,1
64.4000,0.0000,27.9650,0.0000,27.7350,700,36,731,132,1
64.5000,0.0000,27.9500,0.0000,27.7000,702,39,732,133,1
64.6000,0.0167,28.0000,0.0167,27.7150,698,37,727,134,1
64.7000,0.0167,27.9800,0.0167,27.6850,697,36,731,135,1
64.8000,0.0167,27.9500,0.0167,27.7000,699,37,730,136,1
64.9000,0.0000,28.0000,0.0167,27.6700,697,37,725,137,1
65.0000,0.0000,28.0000,0.0167,27.6850,699,36,725,138,1
65.1000,0.0000,28.0000,0.0167,27.6850,699,37,723,139,1
65.2000,0.0000,27.9500,0.0000,27.6850,699,38,728,140,1
65.3000,0.0167,28.0000,0.0000,27.6700,699,38,732,141,1
65.4000,0.0167,27.9650,0.0000,27.6500,701,36,729,142,1
65.5000,0.0167,27.9500,0.0000,27.6850,697,36,730,143,1
65.6000,0.0000,28.0000,0.0000,27.6700,698,36,729,144,1
65.7000,0.0000,27.9500,0.0167,27.7000,701,-2,718,145,1
65.8000,0.0000,27.9500,0.0167,27.6500,692,34,743,146,1
65.9000,0.0000,28.0000,0.0167,27.6850,697,40,732,147,1
66.0000,0.0000,27.9500,0.0167,27.6850,695,36,734,148,1
66.1000,-0.0167,27.9650,0.0167,27.6850,695,39,742,149,1
66.2000,-0.0167,27.9800,0.0000,27.6850,693,38,736,150,1
66.3000,-0.0167,27.9800,0.0000,27.6700,696,41,729,151,1
66.4000,0.0000,27.9650,0.0167,27.6850,700,36,741,152,1
66.5000,0.0000,27.9650,0.0000,27.6700,695,41,735,153,1
66.6000,0.0000,27.9650,0.0000,27.6850,690,42,734,154,1
66.7000,0.0000,27.9650,0.0167,27.6700,693,43,730,155,1
66.8000,0.0000,27.9650,0.0167,27.6500,690,43,736,156,1
66.9000,0.0000,27.9650,0.0167,27.6700,690,42,733,157,1
67.0000,0.0000,27.9500,0.0000,27.6350,690,40,738,158,1
67.1000,0.0000,27.9350,0.0000,27.6850,688,43,738,159,1
67.2000,0.0000,27.9500,0.0000,27.6850,690,41,734,160,1
67.3000,0.0167,27.9650,0.0000,27.6350,691,44,735,161,1
67.4000,0.0167,27.9350,0.0000,27.6700,690,45,739,162,1
67.5000,0.0000,27.9800,0.0000,27.6700,690,39,736,163,1
67.6000,0.0000,27.9500,0.0000,27.6500,690,42,731,164,1
67.7000,0.0000,27.9650,0.0000,27.6700,689,45,737,165,1
67.8000,0.0000,27.9650,0.0000,27.6500,689,44,738,166,1
67.9000,0.0000,27.9800,0.0000,27.6700,693,44,737,167,1
68.0000,-0.0167,27.9800,0.0000,27.6350,690,42,734,168,1
68.1000,0.0000,27.9500,0.0167,27.6700,690,41,738,169,1
68.2000,0.0000,27.9650,0.0000,27.6500,690,45,739,170,1
68.3000,0.0000,27.9500,0.0000,27.6500,686,39,736,171,1
68.4000,0.0000,27.9150,0.0000,27.6350,691,44,738,172,1
68.5000,0.0000,27.9800,0.0167,27.6700,691,43,739,173,1
68.6000,0.0000,27.9650,0.0000,27.6200,690,44,730,174,1
68.7000,0.0167,27.9500,0.0000,27.6350,684,42,729,175,1
68.8000,0.0000,27.9650,0.0000,27.6700,690,45,737,176,1
68.9000,0.0167,27.9650,0.0000,27.6500,694,45,738,177,1
69.0000,0.0167,27.9800,0.0000,27.6500,691,42,737,178,1
69.1000,0.0167,27.9650,0.0000,27.6500,690,43,732,179,1
69.2000,0.0167,27.9500,0.0000,27.6350,686,41,739,180,1
69.3000,0.0167,27.9500,0.0000,27.6350,691,43,742,181,1
69.4000,0.0167,27.9500,0.0000,27.6700,687,43,738,182,1
69.5000,0.0167,27.9500,0.0000,27.6500,692,44,737,183,1
69.6000,0.0167,27.9500,0.0000,27.6500,688,42,735,184,1
69.7000,0.0167,27.9650,0.0000,27.6700,690,43,739,185,1
69.8000,0.0167,27.9500,0.0000,27.6500,690,43,743,186,1
69.9000,0.0167,27.9500,0.0000,27.6500,692,44,740,187,1
70.0000,0.0167,27.9150,0.0000,27.6350,689,40,736,188,1
70.1000,0.0167,27.9500,0.0000,27.6500,690,41,740,189,1
70.2000,0.0167,27.9350,0.0000,27.6700,689,42,736,190,1
70.3000,0.0167,27.9350,0.0000,27.6500,642,56,708,191,1
70.4000,0.0167,27.9650,0.0000,27.6700,684,39,741,192,1
70.5000,0.0167,27.9000,0.0000,27.6500,687,42,741,193,1
70.6000,0.0167,27.9150,0.0000,27.6350,684,44,734,194,1
70.7000,0.0167,27.9150,0.0000,27.6050,688,42,739,195,1
70.8000,0.0167,27.9500,0.0000,27.6350,686,47,741,196,1
70.9000,0.0167,27.9650,0.0000,27.6350,684,46,737,197,1
71.0000,0.0333,27.9500,0.0000,27.6200,686,45,733,198,1
71.1000,0.0167,27.9500,0.0000,27.6350,684,47,741,199,1
71.2000,0.0167,27.9500,0.0000,27.6200,687,46,742,200,1
71.3000,0.0167,27.9150,0.0000,27.6350,684,45,743,201,1
71.4000,0.0167,27.9500,0.0000,27.6350,683,43,736,202,1
71.5000,0.0167,27.9000,0.0000,27.6050,687,43,740,203,1
71.6000,0.0167,27.9000,0.0000,27.6350,686,44,737,204,1
71.7000,0.0167,27.9150,0.0000,27.6350,684,44,741,205,1
71.8000,0.0167,27.9350,0.0000,27.6200,688,43,741,206,1
71.9000,0.0167,27.9000,0.0000,27.6200,684,42,738,207,1
72.0000,0.0167,27.9150,0.0000,27.6500,686,45,740,208,1
72.1000,0.0167,27.9500,0.0000,27.6200,687,40,741,209,1
72.2000,0.0167,27.8850,0.0000,27.6050,689,45,737,210,1
72.3000,0.0167,27.9500,0.0000,27.6050,684,44,743,211,1
72.4000,0.0167,27.9350,0.0000,27.6200,684,41,740,212,1
72.5000,0.0167,27.9150,0.0000,27.6050,685,42,739,213,1
72.6000,0.0167,27.9150,0.0000,27.6050,688,40,741,214,1
72.7000,0.0167,27.9150,0.0000,27.6050,689,47,736,215,1
72.8000,0.0167,27.9350,0.0000,27.6200,686,42,739,216,1
72.9000,0.0167,27.9350,0.0000,27.6200,689,44,740,217,1
73.0000,0.0167,27.9350,0.0000,27.6050,685,42,735,218,1
73.1000,0.0167,27.9000,0.0000,27.5700,685,43,741,219,1
73.2000,0.0167,27.9150,0.0000,27.6050,685,45,742,220,1
73.3000,0.0167,27.9150,0.0000,27.6050,686,43,738,221,1
73.4000,0.0167,27.9350,0.0000,27.5900,687,42,737,222,1
73.5000,0.0167,27.9150,0.0000,27.6500,687,44,739,223,1
73.6000,0.0167,27.9150,0.0000,27.6050,688,43,744,224,1
73.7000,0.0167,27.8850,0.0000,27.5700,684,44,739,225,1
73.8000,0.0167,27.8850,0.0000,27.6050,688,44,734,226,1
73.9000,0.0000,27.8850,0.0000,27.6050,687,42,738,227,1
74.0000,0.0167,27.9150,0.0000,27.6050,687,44,737,228,1
74.1000,0.0167,27.8700,0.0000,27.5900,684,44,743,229,1
74.2000,0.0167,27.9150,0.0000,27.6050,685,42,735,230,1
74.3000,0.0167,27.9000,0.0000,27.6200,689,42,741,231,1
74.4000,0.0333,27.9000,0.0167,27.5900,684,43,739,232,1
74.5000,0.0167,27.9150,0.0167,27.5900,686,42,739,233,1
74.6000,0.0167,27.9000,0.0000,27.5900,686,43,738,234,1
74.7000,0.0167,27.9000,0.0000,27.5900,687,43,740,235,1
74.8000,0.0167,27.9000,0.0000,27.6050,688,44,737,236,1
74.9000,0.0333,27.9350,0.0000,27.5900,687,45,740,237,1
75.0000,0.0167,27.9000,0.0000,27.5550,687,41,735,238,1
75.1000,0.0167,27.9000,0.0000,27.6200,687,42,740,239,1
75.2000,0.0000,27.9150,0.0000,27.5900,687,45,738,240,1
75.3000,0.0167,27.9000,0.0000,27.5900,689,41,738,241,1
75.4000,0.0000,27.9000,0.0000,27.6050,687,41,734,242,1
75.5000,0.0333,27.8700,0.0000,27.6050,690,43,741,243,1
75.6000,0.0333,27.8850,0.0000,27.5700,685,44,738,244,1
75.7000,0.0333,27.9350,0.0000,27.5700,685,44,743,245,1
75.8000,0.0333,27.8850,0.0000,27.5900,686,42,742,246,1
75.9000,0.0500,27.8850,0.0000,27.6050,683,41,740,247,1
76.0000,0.0333,27.9000,0.0000,27.5900,687,43,743,248,1
76.1000,0.0167,27.8850,0.0000,27.5900,684,42,744,249,1
76.2000,0.0167,27.8700,0.0000,27.5700,688,45,737,250,1
76.3000,0.0167,27.8850,0.0000,27.6050,687,43,743,251,1
76.4000,0.0333,27.9150,0.0000,27.5900,687,41,744,252,1
76.5000,0.0167,27.9000,0.0000,27.5700,687,42,740,253,1
76.6000,0.0167,27.8850,0.0000,27.5700,687,41,739,254,1
76.7000,0.0000,27.8850,0.0000,27.5900,688,39,742,255,1
76.8000,0.0167,27.8850,0.0000,27.5550,683,42,735,0,1
76.9000,0.0000,27.8550,0.0000,27.5400,686,43,742,1,1
77.0000,0.0000,27.9000,0.0167,27.5550,687,41,738,2,1
77.1000,0.0000,27.8700,0.0000,27.5700,687,41,738,3,1
77.2000,0.0333,27.8850,0.0000,27.5700,687,39,743,4,1
77.3000,0.0333,27.8850,0.0000,27.5550,684,43,741,5,1
77.4000,0.0167,27.9000,0.0000,27.5550,687,41,740,6,1
77.5000,0.0167,27.8850,0.0167,27.5700,686,45,736,7,1
77.6000,0.0167,27.8700,0.0000,27.5700,687,44,741,8,1
77.7000,0.0167,27.9000,0.0000,27.5550,685,40,735,9,1
77.8000,0.0000,27.8850,0.0167,27.5550,689,45,744,10,1
77.9000,0.0000,27.8850,0.0167,27.5900,687,60,748,11,1
78.0000,0.0000,27.8700,0.0167,27.5700,684,43,746,12,1
78.1000,0.0167,27.8550,0.0000,27.5550,689,42,744,13,1
78.2000,0.0167,27.8700,0.0000,27.5550,685,46,746,14,1
78.3000,0.0000,27.8850,0.0000,27.5400,684,45,742,15,1
78.4000,0.0167,27.8850,0.0000,27.5400,683,42,748,16,1
78.5000,0.0167,27.8550,0.0000,27.5550,684,40,742,17,1
78.6000,0.0000,27.8700,0.0167,27.5400,682,45,733,18,1
78.7000,0.0000,27.8550,0.0167,27.5700,686,44,742,19,1
78.8000,0.0000,27.8550,0.0167,27.5400,686,41,742,20,1
78.9000,0.0000,27.8700,0.0167,27.5250,684,42,742,21,1
79.0000,0.0000,27.8850,0.0167,27.5550,687,45,744,22,1
79.1000,0.0000,27.8700,0.0167,27.5700,684,42,745,23,1
79.2000,0.0167,27.8550,0.0167,27.5550,685,41,739,24,1
79.3000,0.0167,27.8550,0.0167,27.5050,686,46,738,25,1
79.4000,0.0167,27.8700,0.0000,27.5400,685,46,738,26,1
79.5000,0.0000,27.8200,0.0000,27.5550,682,42,745,27,1
79.6000,0.0167,27.8700,0.0000,27.5250,686,42,741,28,1
79.7000,0.0167,27.8550,0.0000,27.5250,687,44,742,29,1
79.8000,0.0167,27.8550,0.0000,27.5400,687,42,741,30,1
79.9000,0.0167,27.8350,0.0000,27.5400,684,42,740,31,1
80.0000,0.0167,27.8550,0.0000,27.5700,683,42,735,32,1
80.1000,0.0333,27.8550,0.0000,27.5250,684,39,738,33,1
80.2000,0.0333,27.8200,0.0000,27.5400,683,42,742,34,1
80.3000,0.0167,27.8700,0.0000,27.5400,686,45,745,35,1
80.4000,0.0167,27.8550,0.0000,27.5550,683,43,738,36,1
80.5000,0.0000,27.8050,0.0000,27.5250,684,42,741,37,1
80.6000,0.0167,27.8550,0.0000,27.5550,687,42,744,38,1
80.7000,0.0167,27.8050,0.0000,27.5550,687,41,741,39,1
80.8000,0.0167,27.8200,0.0000,27.5250,685,45,743,40,1
80.9000,0.0167,27.8550,0.0000,27.5400,687,42,739,41,1
81.0000,0.0167,27.8350,0.0000,27.5250,686,42,745,42,1
81.1000,0.0000,27.8550,0.0000,27.5050,683,42,744,43,1
81.2000,0.0000,27.8350,0.0000,27.5050,683,43,744,44,1
81.3000,0.0167,27.8700,0.0000,27.5250,687,42,738,45,1
81.4000,0.0000,27.8350,0.0000,27.5050,684,45,738,46,1
81.5000,0.0167,27.8350,0.0000,27.5400,687,44,744,47,1
81.6000,0.0000,27.8350,0.0000,27.5400,685,43,745,48,1
81.7000,0.0000,27.8700,0.0000,27.5700,686,43,741,49,1
81.8000,0.0167,27.8350,0.0000,27.5050,682,43,745,50,1
81.9000,0.0167,27.8550,0.0000,27.5400,688,42,741,51,1
82.0000,0.0167,27.8200,0.0000,27.5250,684,45,740,52,1
82.1000,0.0333,27.8550,0.0000,27.5050,684,42,744,53,1
82.2000,0.0333,27.8550,0.0000,27.5050,683,41,744,54,1
82.3000,0.0333,27.8350,0.0000,27.5250,685,39,742,55,1
82.4000,0.0333,27.8550,0.0000,27.4750,683,39,740,56,1
82.5000,0.0333,27.8200,0.0000,27.5250,686,44,741,57,1
82.6000,0.0333,27.8200,0.0000,27.4900,685,43,739,58,1
82.7000,0.0333,27.8350,0.0000,27.5400,686,39,739,59,1
82.8000,0.0333,27.8350,0.0000,27.5050,684,44,742,60,1
82.9000,0.0333,27.8200,0.0000,27.5400,686,40,741,61,1
83.0000,0.0333,27.7900,0.0000,27.5050,687,39,742,62,1
83.1000,0.0333,27.8200,0.0000,27.5250,695,22,730,63,1
83.2000,0.0333,27.8050,0.0000,27.4900,685,49,744,64,1
83.3000,0.0333,27.8350,0.0000,27.5250,685,41,741,65,1
83.4000,0.0333,27.8050,0.0000,27.5250,686,41,741,66,1
83.5000,0.0333,27.8200,0.0000,27.5050,681,45,742,67,1
83.6000,0.0333,27.8350,0.0167,27.4900,683,43,741,68,1
83.7000,0.0167,27.8200,0.0167,27.5250,682,43,741,69,1
83.8000,0.0167,27.8200,0.0000,27.5050,682,40,744,70,1
83.9000,0.0000,27.8550,0.0167,27.4900,684,42,743,71,1
84.0000,0.0167,27.8200,0.0167,27.5050,684,42,740,72,1
84.1000,0.0000,27.8200,0.0167,27.5050,686,42,740,73,1
84.2000,0.0000,27.8050,0.0167,27.4900,684,42,742,74,1
84.3000,0.0000,27.8350,0.0167,27.4900,684,43,747,75,1
84.4000,0.0000,27.8050,0.0167,27.4750,683,42,748,76,1
84.5000,0.0000,27.8050,0.0167,27.5250,683,40,744,77,1
84.6000,0.0167,27.8200,0.0167,27.4750,681,43,737,78,1
84.7000,-0.0167,27.8200,0.0167,27.4750,683,45,744,79,1
84.8000,0.0000,27.8350,0.0167,27.5050,684,43,738,80,1
84.9000,0.0000,27.8050,0.0167,27.4900,685,46,742,81,1
85.0000,0.0000,27.7900,0.0167,27.4750,685,42,741,82,1
85.1000,0.0167,27.8350,0.0167,27.4750,684,42,743,83,1
85.2000,0.0000,27.8050,0.0167,27.4750,684,42,743,84,1
85.3000,0.0167,27.8350,0.0167,27.5050,682,41,745,85,1
85.4000,0.0167,27.7900,0.0167,27.4750,686,42,738,86,1
85.5000,0.0000,27.7900,0.0167,27.4900,685,42,741,87,1
85.6000,0.0000,27.8200,0.0167,27.4750,684,42,738,88,1
85.7000,0.0167,27.8200,0.0167,27.4450,682,43,742,89,1
85.8000,0.0167,27.8050,0.0167,27.4600,683,42,741,90,1
85.9000,0.0000,27.7900,0.0000,27.4750,684,40,737,91,1
86.0000,0.0167,27.8050,0.0000,27.4750,684,42,741,92,1
86.1000,0.0167,27.8200,0.0000,27.5050,682,42,743,93,1
86.2000,0.0167,27.8050,0.0000,27.4750,685,42,744,94,1
86.3000,0.0167,27.8050,0.0000,27.4750,686,42,739,95,1
86.4000,0.0167,27.7900,0.0000,27.4600,686,40,744,96,1
86.5000,0.0167,27.8550,0.0000,27.4600,681,39,744,97,1
86.6000,0.0333,27.7700,0.0000,27.4750,688,42,745,98,1
86.7000,0.0333,27.8200,0.0000,27.4600,683,39,741,99,1
86.8000,0.0333,27.7900,0.0000,27.5050,685,40,741,100,1
86.9000,0.0333,27.7900,0.0000,27.4450,686,42,743,101,1
87.0000,0.0333,27.8050,0.0000,27.4450,685,39,743,102,1
87.1000,0.0333,27.8350,0.0000,27.4900,682,42,744,103,1
87.2000,0.0333,27.7900,0.0167,27.4600,685,42,740,104,1
87.3000,0.0333,27.8050,0.0000,27.4750,684,39,744,105,1
87.4000,0.0333,27.7900,0.0167,27.4100,684,40,741,106,1
87.5000,0.0333,27.7700,0.0167,27.4750,686,43,744,107,1
87.6000,0.0333,27.7900,0.0167,27.4600,684,39,744,108,1
87.7000,0.0333,27.7900,0.0167,27.4600,681,44,741,109,1
87.8000,0.0333,27.8200,0.0167,27.4600,683,41,742,110,1
87.9000,0.0333,27.7700,0.0167,27.4600,685,40,739,111,1
88.0000,0.0333,27.8050,0.0000,27.4450,683,39,744,112,1
88.1000,0.0333,27.7700,0.0000,27.4450,681,41,743,113,1
88.2000,0.0333,27.7900,0.0000,27.4450,682,41,738,114,1
88.3000,0.0333,27.7900,0.0000,27.4600,683,39,745,115,1
88.4000,0.0333,27.7700,0.0000,27.4100,678,72,739,116,1
88.5000,0.0333,27.7900,0.0000,27.4600,684,39,747,117,1
88.6000,0.0333,27.7700,0.0000,27.4450,683,39,745,118,1
88.7000,0.0333,27.8200,0.0000,27.4450,681,39,748,119,1
88.8000,0.0167,27.7900,0.0000,27.4450,684,42,745,120,1
88.9000,0.0167,27.7550,0.0167,27.4250,686,42,742,121,1
89.0000,0.0167,27.7700,0.0000,27.4250,684,46,738,122,1
89.1000,-0.0167,27.7700,0.0167,27.4250,641,60,798,123,1
89.2000,0.0167,27.7900,-0.0167,27.4600,696,89,736,124,1
89.3000,0.0333,27.7550,0.0000,27.4600,645,59,751,125,1
89.4000,0.0167,27.7550,0.0000,27.4600,613,48,810,126,1
89.5000,0.0000,27.7400,0.0333,27.4600,532,48,846,127,1
89.6000,-0.0167,27.7550,0.0500,27.4450,411,29,939,128,1
89.7000,-0.0833,27.7550,0.0167,27.4250,522,6,612,129,1
89.8000,-0.0500,27.7400,0.0333,27.3950,762,60,735,130,1
89.9000,0.0500,27.7900,-0.0167,27.4450,807,29,536,131,1
90.0000,0.0167,27.7550,0.0000,27.4250,760,20,651,132,1
90.1000,0.0167,27.7700,0.0000,27.4450,774,-18,635,133,1
90.2000,0.0167,27.7250,0.0000,27.4450,718,4,657,134,1
90.3000,0.0167,27.7550,0.0000,27.4450,728,19,760,135,1
90.4000,0.0333,27.7700,0.0167,27.4450,686,18,740,136,1
90.5000,0.0333,27.7400,0.0167,27.4100,714,-11,768,137,1
90.6000,-0.0333,27.7550,0.0333,27.4100,788,33,597,138,1
90.7000,0.0833,27.7400,0.2000,27.4250,1314,174,675,139,1
90.8000,-0.1000,27.7400,0.0500,27.4100,1112,-176,-96,140,1
90.9000,-0.2667,27.7900,0.3167,27.3800,1236,36,-177,141,1
91.0000,-0.1000,27.7250,0.0000,27.4250,1083,69,-73,142,1
91.1000,-0.0333,27.7550,-0.1833,27.4100,917,30,-142,143,1
91.2000,0.2167,27.7550,-0.4333,27.3950,849,171,-2,144,1
91.3000,0.3167,27.7700,-0.3333,27.3800,777,489,-254,145,1
91.4000,0.2167,27.7700,-0.1333,27.4250,901,307,-301,146,1
91.5000,0.0833,27.7550,-0.0167,27.3800,1021,172,-135,147,1
91.6000,0.1500,27.7700,-0.0667,27.4250,943,244,-124,148,1
91.7000,0.0500,27.7250,0.0833,27.4250,1155,291,-83,149,1
91.8000,-0.0333,27.7250,0.1333,27.4100,954,149,-280,150,1
91.9000,0.1333,27.7250,-0.0167,27.3950,1013,264,-142,151,1
92.0000,0.1333,27.7250,-0.0667,27.3950,921,231,-186,152,1
92.1000,0.0000,27.7700,0.0000,27.3800,1068,128,-82,153,1
92.2000,0.0667,27.7550,-0.0333,27.3950,946,191,-198,154,1
92.3000,0.1500,27.7550,-0.1000,27.4100,968,228,-150,155,1
92.4000,0.0667,27.7900,-0.0333,27.3950,955,112,-163,156,1
92.5000,-0.0667,27.7400,0.0333,27.3800,1072,79,-171,157,1
92.6000,0.0167,27.7100,0.0000,27.3600,1001,195,-201,158,1
92.7000,0.0000,27.7550,0.0500,27.3800,1048,152,-196,159,1
92.8000,0.0000,27.7400,0.0500,27.3450,1017,86,-167,160,1
92.9000,0.0833,27.7250,0.1167,27.4100,1008,176,-129,161,1
93.0000,0.0500,27.7550,0.1167,27.4100,1007,188,-153,162,1
93.1000,-0.0167,27.7400,0.0667,27.3950,907,204,-201,163,1
93.2000,0.1500,27.7400,-0.1667,27.4250,904,205,-250,164,1
93.3000,0.0333,27.7250,0.0000,27.3950,986,181,-174,165,1
93.4000,-0.0167,27.7100,-0.0167,27.3600,979,106,-202,166,1
93.5000,0.0667,27.7100,-0.0833,27.4100,988,168,-175,167,1
93.6000,0.1333,27.7250,-0.0333,27.3950,987,204,-202,168,1
93.7000,0.1333,27.7400,-0.1167,27.3800,963,147,-193,169,1
93.8000,0.0333,27.7550,-0.0500,27.4100,997,189,-189,170,1
93.9000,0.0667,27.7250,-0.1167,27.4100,953,178,-166,171,1
94.0000,0.0500,27.7100,-0.0500,27.3600,1002,168,-210,172,1
94.1000,0.1000,27.7400,-0.1000,27.3950,962,168,-222,173,1
94.2000,0.1000,27.7400,-0.0500,27.3800,987,217,-187,174,1
94.3000,0.0500,27.7250,0.0333,27.3800,986,163,-196,175,1
94.4000,0.0500,27.7250,0.0667,27.3600,996,151,-144,176,1
94.5000,0.0500,27.7250,0.0667,27.3950,996,213,-221,177,1
94.6000,0.0333,27.6900,0.0167,27.3800,980,219,-197,178,1
94.7000,0.0500,27.7250,-0.0333,27.3600,939,208,-238,179,1
94.8000,0.0833,27.6750,0.0333,27.3600,981,237,-141,180,1
94.9000,0.0333,27.7250,0.0000,27.3450,972,228,-220,181,1
95.0000,0.0000,27.7400,-0.0167,27.3800,997,182,-197,182,1
95.1000,0.0167,27.7400,0.0333,27.3800,982,250,-220,183,1
95.2000,0.0833,27.7250,-0.0500,27.3800,941,259,-183,184,1
95.3000,0.0667,27.7100,-0.0500,27.3450,959,234,-181,185,1
95.4000,0.1000,27.7250,-0.1500,27.3800,906,263,-224,186,1
95.5000,0.1000,27.7100,-0.0333,27.3600,982,279,-171,187,1
95.6000,0.0500,27.6900,-0.0167,27.3800,971,220,-225,188,1
95.7000,0.0333,27.6750,0.0167,27.3800,1035,214,-126,189,1
95.8000,0.0833,27.6900,0.0167,27.3800,970,247,-189,190,1
95.9000,0.0833,27.7100,0.0167,27.3600,977,263,-153,191,1
96.0000,0.0833,27.7250,-0.0333,27.3600,936,274,-176,192,1
96.1000,0.0500,27.6900,0.0500,27.3600,1018,316,-122,193,1
96.2000,0.0333,27.6450,0.0667,27.3300,973,257,-171,194,1
96.3000,0.0833,27.6900,-0.0500,27.3150,921,339,-207,195,1
96.4000,0.0833,27.7100,0.0000,27.3300,1098,287,-165,196,1
96.5000,0.1000,27.7100,-0.0667,27.3600,952,297,-126,197,1
96.6000,0.1500,27.6750,-0.1167,27.3450,1015,226,-69,198,1
96.7000,0.2000,27.6750,-0.1333,27.3600,972,333,-221,199,1
96.8000,0.1833,27.6900,0.2167,27.3800,916,288,-165,200,1
96.9000,-0.0667,27.7100,0.6667,27.3150,1093,-19,-60,201,1
97.0000,0.1333,27.7100,35.5167,27.3450,1068,285,3,202,1
97.1000,0.1333,27.6750,-0.5667,27.3450,918,322,-68,203,1
97.2000,0.0500,27.6900,24.0500,27.3600,1021,60,-195,204,1
97.3000,0.0500,27.6600,-1.3667,27.3300,1065,207,-22,205,1
97.4000,0.1500,27.6450,37.2667,27.3450,627,325,-124,206,1
97.5000,0.1333,27.6750,39.9333,27.3150,1044,471,-44,207,1
97.6000,-0.1167,27.7100,12.1333,27.3300,950,263,-206,208,1
97.7000,0.1000,27.6600,24.9167,27.3300,885,454,-83,209,1
97.8000,0.0833,27.6600,12.0167,27.3300,903,449,-135,210,1
97.9000,0.0500,27.6750,34.1333,27.3450,1033,300,-68,211,1
98.0000,0.0500,27.6750,-2.1000,27.3150,918,307,-127,212,1
98.1000,0.0833,27.7400,-0.3000,27.3300,950,416,-129,213,1
98.2000,0.0500,27.6750,-4.8333,27.2800,993,351,-34,214,1
98.3000,0.0500,27.6600,-0.5667,27.3450,957,252,-55,215,1
98.4000,0.1000,27.6600,5.7667,27.3000,973,381,-9,216,1
98.5000,0.0833,27.6450,5.8333,27.3150,929,327,-73,217,1
98.6000,0.0000,27.6100,7.2500,27.3300,1014,285,60,218,1
98.7000,0.0333,27.6600,2.0167,27.2800,957,204,57,219,1
98.8000,0.0667,27.6900,-8.2500,27.3150,961,304,27,220,1
98.9000,0.0000,27.6600,104.5167,27.2800,952,294,-20,221,1
99.0000,0.0167,27.6750,104.8667,27.3000,979,306,1,222,1
99.1000,0.1333,27.6600,105.6500,27.3150,954,313,-12,223,1
99.2000,0.0000,27.6600,102.9333,27.3300,998,291,15,224,1
99.3000,-0.1333,27.6450,10.5333,27.2800,990,276,11,225,1
99.4000,-1.0000,27.6600,-0.1000,27.3150,1025,288,30,226,1
99.5000,-0.8833,27.6600,7.3333,27.3000,924,330,-4,227,1
99.6000,-1.1667,27.6600,5.7500,27.3000,963,262,16,228,1
99.7000,-0.5167,27.6450,80.9500,27.3150,1006,270,-3,229,1
99.8000,-0.3167,27.6750,88.6000,27.2650,966,284,9,230,1
99.9000,-0.7667,27.7100,57.6000,27.3150,963,279,4,231,1
100.0000,-0.7333,27.6750,1.6167,27.3000,978,304,23,232,1
100.1000,-0.2833,27.6600,1.1833,27.3150,980,277,21,233,1
100.2000,-0.1167,27.6450,0.4167,27.2650,969,287,27,234,1
100.3000,0.1667,27.6600,-0.1833,27.2800,971,276,9,235,1
100.4000,0.1167,27.6450,-0.2833,27.3000,1002,282,6,236,1
100.5000,0.1000,27.6450,-1.3500,27.2800,967,297,9,237,1
100.6000,0.0667,27.6300,-1.4667,27.2650,991,292,9,238,1
100.7000,0.0500,27.6100,-1.4333,27.3000,1000,294,-28,239,1
100.8000,0.0500,27.6450,-1.2333,27.3150,966,311,25,240,1
100.9000,0.0500,27.6450,-0.5500,27.2800,954,297,3,241,1
101.0000,0.0500,27.6100,-0.5500,27.2500,950,280,14,242,1
101.1000,0.1000,27.6300,0.2167,27.2800,943,299,14,243,1
101.2000,0.1000,27.6450,-1.3333,27.2650,949,304,2,244,1
101.3000,0.0833,27.6300,-0.1667,27.2800,981,291,15,245,1
101.4000,0.0833,27.6100,1.4667,27.2800,965,291,0,246,1
101.5000,0.1000,27.6450,1.2333,27.2650,966,300,12,247,1
101.6000,0.0833,27.6300,1.0167,27.2800,964,299,6,248,1
101.7000,0.0833,27.5800,-1.2833,27.2650,976,288,8,249,1
101.8000,0.0833,27.6100,-0.8000,27.2500,973,300,-3,250,1
101.9000,0.0667,27.6300,18.4500,27.3000,981,297,5,251,1
102.0000,0.1000,27.6300,127.3333,27.2650,978,295,4,252,1
102.1000,0.1000,27.6450,159.9167,27.2500,975,301,6,253,1
102.2000,0.0833,27.6300,162.4000,27.2800,978,289,11,254,1
102.3000,0.0667,27.6300,143.5167,27.2800,973,287,10,255,1
102.4000,0.0667,27.6300,130.8333,27.2650,959,295,16,0,1
102.5000,0.0500,27.6300,140.7667,27.2650,957,283,9,1,1
102.6000,0.0500,27.6450,127.4000,27.2650,980,294,18,2,1
102.7000,0.0500,27.6450,115.2833,27.2350,964,295,-3,3,1
102.8000,0.0333,27.6300,111.3833,27.2650,972,296,10,4,1
102.9000,0.0333,27.5950,110.4000,27.2650,966,297,3,5,1
103.0000,0.0500,27.6300,115.6667,27.2650,976,296,15,6,1
103.1000,0.0500,27.6100,116.2333,27.2350,970,290,6,7,1
103.2000,0.0500,27.5800,113.4667,27.2800,967,297,7,8,1
103.3000,0.0333,27.5800,114.2500,27.2650,978,292,12,9,1
103.4000,0.0333,27.5800,108.1333,27.2650,972,294,6,10,1
103.5000,0.0667,27.5950,91.3000,27.2350,971,302,3,11,1
103.6000,0.0667,27.5950,74.6333,27.2350,978,300,5,12,1
103.7000,0.0333,27.6100,15.0333,27.2150,975,288,3,13,1
103.8000,-0.2167,27.5450,0.0333,27.2800,970,300,2,14,1
103.9000,0.2167,27.5650,0.7833,27.2500,969,293,12,15,1
104.0000,0.0833,27.5800,0.2500,27.2350,975,286,6,16,1
104.1000,0.0500,27.5950,-0.7833,27.2150,975,295,6,17,1
104.2000,0.0500,27.6300,0.3167,27.2350,971,286,8,18,1
104.3000,0.0500,27.6300,-0.9500,27.2350,979,288,9,19,1
104.4000,0.0333,27.6100,-0.5167,27.2150,964,290,3,20,1
104.5000,0.0500,27.5800,-1.8000,27.2500,981,294,18,21,1
104.6000,0.0333,27.6100,-0.3333,27.2500,967,279,12,22,1
104.7000,0.0500,27.6100,1.1167,27.2650,973,292,15,23,1
104.8000,0.0500,27.5800,0.9167,27.2350,972,293,14,24,1
104.9000,0.0333,27.5950,1.2333,27.2150,969,285,15,25,1
105.0000,0.0500,27.6100,0.6333,27.2350,957,288,22,26,1
105.1000,0.0333,27.5950,0.3500,27.2150,978,289,12,27,1
105.2000,0.0333,27.5800,-3.5333,27.2150,978,277,19,28,1
105.3000,0.0333,27.5650,90.7333,27.2350,974,279,12,29,1
105.4000,0.0667,27.5800,120.2333,27.2350,980,283,25,30,1
105.5000,0.0500,27.5950,148.1167,27.2500,971,277,3,31,1
105.6000,0.0500,27.5800,163.0667,27.2350,973,291,13,32,1
105.7000,0.0833,27.5650,169.1000,27.2150,966,289,6,33,1
105.8000,0.0500,27.5800,169.4667,27.2350,979,285,15,34,1
105.9000,0.0500,27.5650,162.4000,27.2000,974,289,9,35,1
106.0000,0.0500,27.5800,159.9167,27.2350,987,288,12,36,1
106.1000,0.0333,27.5450,149.3500,27.2150,966,277,15,37,1
106.2000,0.0500,27.5650,136.1333,27.2150,961,285,12,38,1
106.3000,0.0667,27.6300,127.4333,27.2000,967,289,15,39,1
106.4000,0.0667,27.5650,115.8333,27.2000,977,285,6,40,1
106.5000,0.0667,27.5300,94.0333,27.2150,973,284,10,41,1
106.6000,0.0833,27.5650,87.2333,27.1850,967,297,8,42,1
106.7000,0.0667,27.5950,76.3333,27.2000,985,286,15,43,1
106.8000,0.0500,27.5950,49.0667,27.2000,981,283,6,44,1
106.9000,0.0500,27.5650,2.4000,27.1850,990,288,16,45,1
107.0000,0.0500,27.5800,-1.6167,27.2000,967,283,13,46,1
107.1000,0.0667,27.5650,-0.8667,27.2000,959,287,16,47,1
107.2000,0.0667,27.5650,0.5500,27.2350,975,287,19,48,1
107.3000,0.0500,27.5450,-0.2667,27.2000,974,279,13,49,1
107.4000,0.0333,27.5800,1.3167,27.2150,971,285,10,50,1
107.5000,0.0667,27.5650,0.5000,27.1850,966,293,13,51,1
107.6000,0.0500,27.5300,0.4333,27.2000,985,284,15,52,1
107.7000,0.0333,27.5650,-1.6333,27.1700,980,288,12,53,1
107.8000,0.0667,27.5950,-1.9833,27.2000,969,291,15,54,1
107.9000,0.0500,27.5150,-1.6167,27.1850,976,276,14,55,1
108.0000,0.0500,27.5650,-1.2333,27.1700,973,275,9,56,1
108.1000,0.0667,27.5650,-1.3500,27.1850,966,289,18,57,1
108.2000,0.0500,27.5450,-1.7333,27.1850,979,279,11,58,1
108.3000,0.0500,27.5450,-1.4500,27.1700,978,273,13,59,1
108.4000,0.0667,27.5450,-1.3500,27.2150,957,285,6,60,1
108.5000,0.0667,27.5650,-1.6667,27.2350,974,279,12,61,1
108.6000,0.0500,27.5450,-1.8167,27.1850,974,271,14,62,1
108.7000,0.0500,27.5300,0.3167,27.1850,978,281,18,63,1
108.8000,0.0500,27.5450,1.2500,27.1700,976,269,18,64,1
108.9000,0.0333,27.5150,0.5833,27.1850,969,267,12,65,1
109.0000,0.0167,27.5450,2.2000,27.1350,967,275,21,66,1
109.1000,0.0833,27.5450,0.9667,27.1550,978,273,21,67,1
109.2000,-0.0167,27.5300,-0.2167,27.1850,986,263,24,68,1
109.3000,-0.1500,27.5450,-0.5167,27.1700,978,271,11,69,1
109.4000,-0.0500,27.5650,-0.4167,27.1850,977,276,15,70,1
109.5000,-0.0833,27.5450,-1.1167,27.2350,976,265,15,71,1
109.6000,-0.2167,27.5450,0.2333,27.1850,986,273,12,72,1
109.7000,-0.0500,27.5150,-0.1667,27.1700,989,277,13,73,1
109.8000,-0.1000,27.5450,0.5167,27.1350,978,272,16,74,1
109.9000,-0.2000,27.5650,0.4500,27.1550,976,273,20,75,1
110.0000,-0.0333,27.5450,-0.7833,27.1700,963,275,15,76,1
110.1000,-0.0833,27.5150,-0.2833,27.1550,987,269,22,77,1
110.2000,-0.0500,27.5300,0.1167,27.2000,975,272,17,78,1
110.3000,-0.0833,27.5300,-0.5333,27.1350,984,273,21,79,1
110.4000,0.0333,27.5300,-0.3500,27.1550,967,270,15,80,1
110.5000,0.0667,27.5300,-0.5833,27.1700,978,271,15,81,1
110.6000,0.0333,27.5150,-1.1000,27.1700,988,275,14,82,1
110.7000,0.0833,27.5150,-1.6000,27.1550,981,260,27,83,1
110.8000,0.0167,27.5150,-1.0667,27.1550,978,271,18,84,1
110.9000,0.0500,27.5300,-0.2833,27.1700,968,271,19,85,1
111.0000,0.0500,27.5450,-1.2333,27.1550,975,267,15,86,1
111.1000,0.0500,27.5300,-1.0333,27.1700,971,266,11,87,1
111.2000,0.0333,27.5450,-1.1000,27.1550,978,271,16,88,1
111.3000,0.0333,27.4850,-0.8000,27.1550,984,265,18,89,1
111.4000,0.0333,27.5150,0.7333,27.2000,976,267,30,90,1
111.5000,0.0333,27.5300,1.7167,27.1350,986,274,24,91,1
111.6000,0.0333,27.5150,0.5000,27.1550,985,266,19,92,1
111.7000,0.0500,27.5300,1.0833,27.1350,971,268,23,93,1
111.8000,0.0500,27.5150,1.3833,27.1350,981,261,25,94,1
111.9000,0.0500,27.5000,1.2167,27.1350,970,258,19,95,1
112.0000,0.0500,27.5150,-4.8167,27.1200,980,262,21,96,1
112.1000,0.0500,27.5000,134.0500,27.1200,984,263,24,97,1
112.2000,0.0500,27.5150,204.9500,27.1200,989,247,19,98,1
112.3000,0.0500,27.5450,231.9833,27.1550,970,261,15,99,1
112.4000,0.0667,27.5450,238.4833,27.1550,982,265,15,100,1
112.5000,0.0500,27.5150,247.3500,27.1550,980,255,20,101,1
112.6000,0.0500,27.5150,264.8667,27.1700,975,257,27,102,1
112.7000,0.0500,27.5300,260.1000,27.1350,981,257,21,103,1
112.8000,0.0500,27.5000,247.4667,27.1550,981,265,21,104,1
112.9000,0.0500,27.4650,232.2500,27.1350,981,257,20,105,1
113.0000,0.0667,27.5000,216.6833,27.1200,979,261,15,106,1
113.1000,0.0667,27.5000,190.3833,27.1350,986,258,21,107,1
113.2000,0.0500,27.5150,185.5500,27.1350,986,262,17,108,1
113.3000,0.0667,27.5000,171.0833,27.1350,977,258,21,109,1
113.4000,0.0500,27.4850,159.4167,27.0700,987,254,15,110,1
113.5000,0.0500,27.5450,134.5167,27.1350,979,257,21,111,1
113.6000,0.0500,27.4850,109.9500,27.1050,980,258,12,112,1
113.7000,0.0667,27.4850,89.4333,27.1200,987,261,21,113,1
113.8000,0.0500,27.5150,72.0000,27.1200,989,254,16,114,1
113.9000,0.0500,27.5150,56.2333,27.1350,978,261,22,115,1
114.0000,0.0500,27.5150,23.5167,27.1550,978,263,27,116,1
114.1000,0.0500,27.5000,-29.8333,27.1550,990,252,18,117,1
114.2000,0.0500,27.5150,-71.5333,27.1200,976,249,20,118,1
114.3000,0.0500,27.4850,-83.7333,27.1350,972,257,15,119,1
114.4000,0.0667,27.5150,-109.0000,27.1350,973,249,28,120,1
114.5000,0.0667,27.5000,-131.0500,27.1350,979,245,21,121,1
114.6000,0.0500,27.4850,-158.7167,27.1200,988,256,18,122,1
114.7000,0.0667,27.4850,-203.2167,27.1200,965,249,18,123,1
114.8000,0.0667,27.4650,-239.0667,27.1050,993,245,22,124,1
114.9000,0.0667,27.5000,-249.4500,27.1350,988,248,21,125,1
115.0000,0.0667,27.4850,-251.6000,27.1350,980,249,18,126,1
115.1000,0.0667,27.5150,-237.8167,27.1050,990,247,26,127,1
115.2000,0.0833,27.5000,-218.7000,27.1350,982,242,21,128,1
115.3000,0.0833,27.5000,-201.1833,27.1050,981,249,23,129,1
115.4000,0.0667,27.4850,-181.7333,27.0900,980,246,26,130,1
115.5000,0.0667,27.4850,-181.0333,27.0900,966,231,24,131,1
115.6000,0.1000,27.4850,-149.6167,27.1200,976,248,25,132,1
115.7000,0.1167,27.5000,-119.2333,27.1200,982,247,28,133,1
115.8000,0.1000,27.5150,-80.3833,27.1050,987,241,23,134,1
115.9000,0.0833,27.5150,-48.3333,27.1050,978,244,23,135,1
116.0000,0.0833,27.4650,-7.3167,27.0900,975,242,20,136,1
116.1000,0.0833,27.4850,57.9000,27.1350,981,234,25,137,1
116.2000,0.0833,27.4850,142.7500,27.1050,993,237,26,138,1
116.3000,0.0833,27.4850,211.1500,27.1050,985,233,25,139,1
116.4000,0.0667,27.5000,260.5667,27.0900,998,232,15,140,1
116.5000,0.0667,27.4650,292.3333,27.0900,990,228,23,141,1
116.6000,0.0667,27.4850,313.2000,27.0900,984,232,26,142,1
116.7000,0.0500,27.4350,311.1500,27.1050,992,243,22,143,1
116.8000,0.0667,27.4850,309.3500,27.0550,984,238,27,144,1
116.9000,0.0833,27.4850,301.5833,27.0900,981,237,23,145,1
117.0000,0.0833,27.4650,286.8333,27.0900,991,237,24,146,1
117.1000,0.0833,27.4650,269.3667,27.0700,987,237,33,147,1
117.2000,0.0667,27.5150,243.1667,27.0700,993,236,22,148,1
117.3000,0.0667,27.4850,218.5333,27.0900,987,241,21,149,1
117.4000,0.0667,27.4500,214.4167,27.0900,989,233,25,150,1
117.5000,0.0667,27.4650,208.3500,27.0900,988,231,24,151,1
117.6000,0.0667,27.4650,198.6500,27.0900,981,233,24,152,1
117.7000,0.0667,27.4650,188.4500,27.1050,987,238,22,153,1
117.8000,0.0500,27.4850,181.6000,27.0900,995,233,20,154,1
117.9000,0.0667,27.4850,174.0833,27.0900,981,230,27,155,1
118.0000,0.0667,27.4500,169.0167,27.0700,989,234,22,156,1
118.1000,0.0500,27.4650,164.9833,27.0900,988,228,15,157,1
118.2000,0.0667,27.4850,173.7000,27.0700,987,234,28,158,1
118.3000,0.0667,27.4850,158.8833,27.0700,989,233,23,159,1
118.4000,0.0500,27.4650,139.7667,27.0550,993,213,31,160,1
118.5000,0.0333,27.4850,107.0667,27.0900,972,204,27,161,1
118.6000,0.0333,27.4650,78.1167,27.0550,934,217,34,162,1
118.7000,0.1000,27.4850,42.0833,27.0700,951,215,31,163,1
118.8000,0.0833,27.4650,-2.6333,27.0900,1010,241,46,164,1
118.9000,-0.1167,27.4500,-3.8333,27.0550,981,223,27,165,1
119.0000,0.0833,27.4200,-2.9833,27.0550,981,248,19,166,1
119.1000,0.0667,27.4500,-3.7167,27.0900,985,234,28,167,1
119.2000,0.0500,27.4350,-38.0000,27.0900,984,229,19,168,1
119.3000,0.0667,27.4850,-52.7333,27.1050,982,248,18,169,1
119.4000,0.0667,27.4500,1.0333,27.0550,987,245,18,170,1
119.5000,0.0667,27.4500,-3.7333,27.0900,993,237,34,171,1
119.6000,0.0833,27.4850,-3.1667,27.0900,972,240,13,172,1
119.7000,0.0833,27.4650,-1.6167,27.0700,987,234,36,173,1
119.8000,0.0833,27.4350,-0.9167,27.0550,979,235,20,174,1
119.9000,0.0833,27.4650,-0.0833,27.0700,987,231,28,175,1
120.0000,0.0833,27.4350,1.2667,27.0900,985,228,21,176,1
120.1000,0.0667,27.4850,-3.6000,27.1050,988,229,21,177,1
120.2000,0.0667,27.4350,0.0333,27.0700,975,231,27,178,1
120.3000,0.0833,27.4850,-2.1167,27.0700,979,219,27,179,1
120.4000,0.0833,27.4500,-14.0500,27.0050,984,228,29,180,1
120.5000,0.0833,27.4350,107.6333,27.0400,991,227,35,181,1
120.6000,0.0667,27.4500,207.1667,27.0400,1002,220,27,182,1
120.7000,0.0667,27.4850,296.0167,27.0550,1005,219,28,183,1
120.8000,0.0667,27.4350,368.5333,27.0700,978,228,22,184,1
120.9000,0.0667,27.4350,392.3167,27.0250,996,229,29,185,1
121.0000,0.0667,27.4650,380.6833,27.0250,998,213,22,186,1
121.1000,0.0667,27.4500,346.7000,27.0550,1012,231,22,187,1
121.2000,0.1000,27.4350,319.9500,27.0700,976,213,27,188,1
121.3000,0.1000,27.4500,322.5167,27.0400,987,219,30,189,1
121.4000,0.0833,27.4200,287.1333,27.0700,981,216,21,190,1
121.5000,0.1000,27.4350,248.8500,27.0700,978,217,30,191,1
121.6000,0.0667,27.4350,236.0000,27.0700,990,214,21,192,1
121.7000,0.0833,27.4350,225.5500,27.0700,990,216,18,193,1
121.8000,0.1000,27.4350,194.6667,27.0050,991,230,27,194,1
121.9000,0.0667,27.4350,173.7833,27.0250,986,217,15,195,1
122.0000,0.0667,27.4500,171.1333,27.0250,984,216,19,196,1
122.1000,0.0833,27.4200,154.3333,27.0050,989,214,19,197,1
122.2000,0.0833,27.4500,138.3167,27.0400,981,219,23,198,1
122.3000,0.0667,27.4200,132.5833,27.0250,979,221,25,199,1
122.4000,0.1000,27.4350,123.6000,27.0400,989,220,20,200,1
122.5000,0.1000,27.4500,110.9167,27.0050,987,213,24,201,1
122.6000,0.0833,27.4200,91.8333,27.0550,989,222,13,202,1
122.7000,0.0833,27.4200,81.7833,27.0250,998,218,23,203,1
122.8000,-0.1333,27.4200,45.1500,27.0250,995,217,23,204,1
122.9000,-0.0667,27.4350,10.3000,27.0050,987,219,25,205,1
123.0000,-0.0167,27.4500,4.2333,27.0550,975,225,24,206,1
123.1000,0.0333,27.4350,-43.2500,27.0250,987,217,24,207,1
123.2000,0.1000,27.4200,-105.5667,27.0400,964,225,21,208,1
123.3000,0.1000,27.4500,-130.2667,27.0250,992,232,21,209,1
123.4000,0.0833,27.4350,-147.8500,27.0250,1002,228,8,210,1
123.5000,0.1000,27.4350,-168.9500,27.0400,988,231,25,211,1
123.6000,0.1000,27.4350,-178.8833,27.0250,984,234,16,212,1
123.7000,0.1167,27.4200,-184.5000,27.0250,990,230,24,213,1
123.8000,0.1000,27.4200,-181.4667,27.0400,981,234,20,214,1
123.9000,0.1000,27.4350,-173.2333,27.0250,975,234,17,215,1
124.0000,0.1000,27.4200,-183.0667,26.9900,988,234,30,216,1
124.1000,0.0833,27.4200,-180.9333,27.0250,975,233,22,217,1
124.2000,0.1000,27.4200,-163.5667,26.9900,984,240,27,218,1
124.3000,0.1000,27.4200,-150.7833,27.0050,987,233,18,219,1
124.4000,0.1000,27.4350,-150.2167,27.0250,994,237,26,220,1
124.5000,0.1000,27.4200,-141.3500,27.0250,976,233,20,221,1
124.6000,0.1000,27.4200,-115.2500,27.0400,987,235,26,222,1
124.7000,0.0833,27.4200,-99.9167,27.0050,980,228,29,223,1
124.8000,0.0833,27.4500,-61.1833,27.0250,985,233,21,224,1
124.9000,0.0833,27.4000,4.0667,27.0050,981,233,27,225,1
125.0000,0.1000,27.4350,82.2000,27.0050,984,234,27,226,1
125.1000,0.1000,27.4200,174.5333,27.0050,978,222,39,227,1
125.2000,0.1000,27.4350,222.8167,27.0050,984,228,18,228,1
125.3000,0.0833,27.4200,247.9500,27.0250,1002,224,20,229,1
125.4000,0.0833,27.4200,266.5167,26.9900,994,233,18,230,1
125.5000,0.0833,27.3850,261.7667,27.0050,979,231,28,231,1
125.6000,0.0833,27.4000,261.1667,26.9900,982,226,29,232,1
125.7000,0.0833,27.3850,252.5333,26.9900,985,228,27,233,1
125.8000,0.0833,27.3850,235.9833,27.0250,995,233,17,234,1
125.9000,0.0833,27.4200,214.0833,26.9600,989,226,27,235,1
126.0000,0.0833,27.4350,238.1833,27.0250,993,228,27,236,1
126.1000,0.0833,27.3850,234.1500,27.0250,987,231,18,237,1
126.2000,0.1000,27.4000,227.9833,26.9900,993,228,24,238,1
126.3000,0.1000,27.3700,205.6500,27.0250,990,225,21,239,1
126.4000,0.1000,27.4000,204.1167,26.9900,988,225,27,240,1
126.5000,0.1000,27.3850,205.1167,27.0050,973,234,24,241,1
126.6000,0.0833,27.4000,197.3000,27.0050,989,228,27,242,1
126.7000,0.0667,27.3850,184.8333,26.9900,991,225,25,243,1
126.8000,0.0667,27.3850,173.8000,26.9750,980,230,28,244,1
126.9000,0.0667,27.3850,162.8667,26.9900,984,232,24,245,1
127.0000,0.0667,27.3850,157.0333,26.9750,990,234,22,246,1
127.1000,0.0667,27.4000,140.4500,27.0050,990,233,20,247,1
127.2000,0.0667,27.3850,115.1500,26.9750,996,239,22,248,1
127.3000,0.0333,27.3850,97.5167,26.9600,992,235,22,249,1
127.4000,0.0500,27.4200,100.7167,26.9750,984,226,24,250,1
127.5000,0.0333,27.4200,106.5000,26.9750,982,237,25,251,1
127.6000,0.0167,27.4200,56.7833,26.9900,988,228,28,252,1
127.7000,0.0833,27.4000,-9.6500,26.9900,987,228,24,253,1
127.8000,0.0667,27.3850,-180.0833,26.9750,989,232,30,254,1
127.9000,0.0500,27.3850,-321.7333,26.9600,999,229,24,255,1
128.0000,0.0500,27.4000,-334.0167,26.9250,981,229,21,0,1
128.1000,0.0667,27.3700,-345.1667,26.9750,981,239,21,1,1
128.2000,0.0667,27.3850,-369.1000,26.9450,987,228,24,2,1
128.3000,0.0833,27.3700,-386.0167,26.9250,982,231,21,3,1
128.4000,0.0667,27.3850,-381.1667,26.9750,975,240,21,4,1
128.5000,0.0500,27.3850,-385.9500,26.9900,990,231,18,5,1
128.6000,0.0500,27.3700,-391.8500,26.9600,988,224,21,6,1
128.7000,0.0500,27.3850,-399.6500,26.9600,982,238,25,7,1
128.8000,0.0500,27.3700,-408.4833,26.9750,985,237,21,8,1
128.9000,0.0500,27.3850,-395.8667,26.9100,990,231,24,9,1
129.0000,0.0667,27.3550,-383.7000,26.9600,981,228,24,10,1
129.1000,0.0667,27.3700,-389.9833,26.9900,984,235,21,11,1
129.2000,0.0833,27.3850,-381.9667,26.9600,988,230,21,12,1
129.3000,0.0833,27.3700,-372.3167,26.9600,990,234,30,13,1
129.4000,0.0667,27.3550,-373.4333,26.9600,986,228,27,14,1
129.5000,0.0500,27.3850,-357.8333,26.9250,990,229,24,15,1
129.6000,0.0500,27.3700,-333.7167,26.9450,993,235,18,16,1
129.7000,0.0833,27.4200,-268.8500,26.9450,975,233,23,17,1
129.8000,0.0833,27.3700,-238.0167,26.9450,984,225,24,18,1
129.9000,0.0833,27.3550,-194.4667,26.9600,984,228,23,19,1
130.0000,0.1000,27.3850,-81.0167,26.9450,987,226,26,20,1
130.1000,0.0667,27.3700,173.4333,26.9750,984,225,33,21,1
130.2000,0.0667,27.3550,339.3500,26.9100,985,228,27,22,1
130.3000,0.0667,27.3700,372.8833,26.9450,1002,225,20,23,1
130.4000,0.0500,27.3400,375.6333,26.9750,994,228,22,24,1
130.5000,0.0667,27.3200,372.8667,26.9750,1007,223,25,25,1
130.6000,0.0667,27.3550,389.1500,26.9600,973,219,24,26,1
130.7000,0.0667,27.3700,390.5833,26.9600,985,214,34,27,1
130.8000,0.0833,27.3850,380.3333,26.9450,987,230,27,28,1
130.9000,0.0833,27.3400,373.2833,26.9100,989,229,24,29,1
131.0000,0.0833,27.3700,366.2833,26.9250,981,223,24,30,1
131.1000,0.0833,27.3400,362.5167,26.9450,981,234,21,31,1
131.2000,0.1000,27.3700,360.1167,26.9100,989,229,30,32,1
131.3000,0.0833,27.3200,355.7833,26.9100,993,219,12,33,1
131.4000,0.1000,27.3400,354.9000,26.9250,998,248,35,34,1
131.5000,0.0833,27.3400,347.1667,26.9100,971,240,15,35,1
131.6000,0.0500,27.3400,339.0500,26.9100,994,228,19,36,1
131.7000,0.0833,27.3400,326.3833,26.8950,993,237,27,37,1
131.8000,0.1000,27.3400,318.7333,26.9100,978,242,26,38,1
131.9000,0.0667,27.3400,320.8500,26.9450,991,226,37,39,1
132.0000,0.0833,27.3400,298.0833,26.9100,970,238,24,40,1
132.1000,0.0833,27.3400,287.2833,26.9100,984,249,27,41,1
132.2000,0.0667,27.3400,271.1167,26.9100,984,223,23,42,1
132.3000,0.0667,27.3200,252.8833,26.9100,984,238,25,43,1
132.4000,0.0667,27.3550,237.5833,26.8950,984,238,21,44,1
132.5000,0.0500,27.3200,226.5500,26.8950,982,231,19,45,1
132.6000,0.0500,27.3400,211.8500,26.8950,981,243,33,46,1
132.7000,0.0667,27.3550,174.1167,26.8950,978,242,18,47,1
132.8000,0.0667,27.3550,109.7167,26.8950,982,226,28,48,1
132.9000,0.0833,27.3550,6.9000,26.9450,989,244,15,49,1
133.0000,0.0833,27.3200,-58.8000,26.9100,999,239,21,50,1
133.1000,0.0833,27.3200,-86.4000,26.9100,992,238,23,51,1
133.2000,0.0667,27.3050,-140.2500,26.9250,992,243,16,52,1
133.3000,0.0667,27.3200,-169.6833,26.8800,999,243,24,53,1
133.4000,0.0500,27.3400,-250.3833,26.9250,990,231,17,54,1
133.5000,0.0667,27.3400,-354.8167,26.8800,987,245,21,55,1
133.6000,0.0667,27.3550,-396.9833,26.9450,973,238,26,56,1
133.7000,0.0667,27.3400,-438.7500,26.8950,981,228,27,57,1
133.8000,0.0667,27.3200,-471.4833,26.8800,977,237,25,58,1
133.9000,0.0500,27.3050,-492.7000,26.9250,981,235,33,59,1
134.0000,0.0500,27.3050,-477.8667,26.9100,984,233,27,60,1
134.1000,0.0667,27.3400,-459.4000,26.9100,977,242,36,61,1
134.2000,0.0500,27.3200,-444.1000,26.8950,987,244,30,62,1
134.3000,0.0500,27.3400,-427.1500,26.9100,1000,237,26,63,1
134.4000,0.0500,27.3700,-412.2667,26.8950,979,243,29,64,1
134.5000,0.0500,27.3400,-383.4167,26.8800,974,240,36,65,1
134.6000,0.0333,27.3200,-366.1167,26.8950,971,233,39,66,1
134.7000,0.0333,27.3550,-360.6667,26.8600,987,243,33,67,1
134.8000,0.0500,27.3400,-384.6333,26.8800,981,241,39,68,1
134.9000,0.0500,27.3200,-295.5833,26.9100,981,236,37,69,1
135.0000,0.0500,27.3200,-222.2000,26.8950,989,237,30,70,1
135.1000,0.0667,27.3400,-176.4667,26.8800,982,243,35,71,1
135.2000,0.0667,27.3200,-115.3167,26.9100,986,239,27,72,1
135.3000,0.0667,27.3400,4.3333,26.8950,974,231,33,73,1
135.4000,0.0667,27.3200,307.3000,26.8800,987,242,38,74,1
135.5000,0.0500,27.3050,484.6167,26.8600,981,237,25,75,1
135.6000,0.0333,27.3050,506.1000,26.8450,1020,243,22,76,1
135.7000,0.0333,27.3200,514.1000,26.8600,986,223,35,77,1
135.8000,0.0333,27.3050,500.3667,26.8800,978,231,29,78,1
135.9000,0.0333,27.3400,482.3833,26.8450,987,225,35,79,1
136.0000,0.0333,27.3400,459.9833,26.8600,975,229,28,80,1
136.1000,0.0333,27.3200,441.0500,26.8950,1001,240,30,81,1
136.2000,0.0500,27.3050,437.5833,26.8800,938,225,38,82,1
136.3000,0.0667,27.3200,409.2833,26.8600,968,233,42,83,1
136.4000,0.0500,27.3400,377.5667,26.8600,993,251,42,84,1
136.5000,0.0333,27.3550,351.3500,26.8950,1001,243,24,85,1
136.6000,0.0500,27.3550,331.2167,26.8450,999,252,39,86,1
136.7000,0.0500,27.3050,313.1000,26.8800,987,236,29,87,1
136.8000,0.0500,27.3200,286.9333,26.8800,996,237,41,88,1
136.9000,0.0333,27.2900,264.7167,26.8950,981,237,35,89,1
137.0000,0.0500,27.3050,258.3667,26.8950,978,238,35,90,1
137.1000,0.0500,27.2900,270.1667,26.8800,981,228,31,91,1
137.2000,0.0500,27.3050,271.4167,26.8450,980,239,37,92,1
137.3000,0.1000,27.2550,250.9667,26.8800,986,239,30,93,1
137.4000,0.0833,27.3200,232.8667,26.8950,981,244,36,94,1
137.5000,0.0667,27.2750,208.5833,26.8300,1007,260,39,95,1
137.6000,0.1000,27.2750,192.3833,26.8300,957,252,38,96,1
137.7000,0.0833,27.2900,179.1833,26.8450,1005,268,31,97,1
137.8000,0.0500,27.3050,156.5000,26.8450,998,252,28,98,1
137.9000,0.0500,27.2750,134.3167,26.8600,988,237,36,99,1
138.0000,0.0667,27.3050,104.6167,26.8450,956,233,40,100,1
138.1000,0.0500,27.3050,66.2667,26.8450,971,220,51,101,1
138.2000,0.0500,27.2900,-3.5333,26.8800,984,232,44,102,1
138.3000,0.0667,27.3050,-2.0833,26.8150,970,249,29,103,1
138.4000,0.0333,27.2900,-2.3833,26.8450,996,232,31,104,1
138.5000,0.0333,27.2900,-4.6167,26.8950,978,245,21,105,1
138.6000,0.0500,27.3050,-2.3667,26.8600,975,257,36,106,1
138.7000,0.0500,27.3050,-0.7500,26.8600,985,241,34,107,1
138.8000,0.0333,27.3400,-0.6833,26.8150,999,238,37,108,1
138.9000,0.0500,27.3050,-2.7000,26.8450,965,241,31,109,1
139.0000,0.0333,27.2900,-0.4167,26.8600,991,239,37,110,1
139.1000,0.0333,27.2750,-0.5000,26.8300,993,240,34,111,1
139.2000,0.0500,27.2750,-0.5667,26.8150,973,250,25,112,1
139.3000,0.0500,27.2550,-2.2833,26.8800,996,238,45,113,1
139.4000,0.0500,27.2900,0.8667,26.8600,977,231,24,114,1
139.5000,0.0667,27.2550,-0.6833,26.8600,982,246,41,115,1
139.6000,0.0667,27.3200,2.4667,26.8450,980,244,30,116,1
139.7000,0.0500,27.2750,0.9667,26.8450,995,228,44,117,1
139.8000,0.0667,27.2750,-1.7833,26.8600,984,245,30,118,1
139.9000,0.0667,27.3050,-1.2667,26.8450,981,242,36,119,1
140.0000,0.0500,27.2550,-1.1333,26.8450,990,228,34,120,1
140.1000,0.0667,27.2900,4.1333,26.8600,980,237,37,121,1
140.2000,0.0667,27.3050,0.9500,26.8150,990,241,37,122,1
140.3000,0.0500,27.2550,-0.5000,26.8150,971,237,36,123,1
140.4000,0.0667,27.3200,-0.7333,26.8300,988,244,36,124,1
140.5000,0.0500,27.2900,2.9333,26.8300,972,246,29,125,1
140.6000,0.0500,27.2900,1.2000,26.8450,991,237,47,126,1
140.7000,0.0500,27.2900,1.0167,26.8300,977,234,39,127,1
140.8000,-0.1500,27.2900,7.1000,26.8300,951,240,38,128,1
140.9000,-1.7833,27.2750,4.6000,26.8450,1008,222,51,129,1
141.0000,0.0000,27.2750,-0.3833,26.8450,1001,237,23,130,1
141.1000,-0.1333,27.2900,-0.3000,26.8450,978,245,26,131,1
141.2000,0.0500,27.2900,0.2667,26.8450,971,235,12,132,1
141.3000,0.1500,27.2900,-0.6167,26.8450,1000,237,33,133,1
141.4000,-0.1000,27.2900,-1.0333,26.8450,991,243,13,134,1
141.5000,-0.4333,27.2750,0.4333,26.8300,984,251,27,135,1
141.6000,-0.5667,27.2900,0.1833,26.8450,970,241,30,136,1
141.7000,-0.1333,27.2750,-0.1167,26.8450,979,242,24,137,1
141.8000,-0.2333,27.2550,-0.3833,26.8450,984,252,33,138,1
141.9000,-0.0333,27.2550,-0.5833,26.8150,979,248,24,139,1
142.0000,-0.0500,27.2750,0.7000,26.8150,981,258,25,140,1
142.1000,-0.1000,27.2550,0.8500,26.8300,978,260,18,141,1
142.2000,-0.1000,27.2550,-0.8667,26.8300,1000,257,29,142,1
142.3000,-0.2333,27.2250,0.0667,26.8450,989,254,24,143,1
142.4000,-0.1000,27.3050,-0.3000,26.8150,984,249,31,144,1
142.5000,-0.1167,27.2750,-0.4333,26.8450,972,249,37,145,1
142.6000,-0.1333,27.2750,-1.0333,26.8150,981,247,22,146,1
142.7000,-0.1833,27.2900,-1.4667,26.8000,984,255,30,147,1
142.8000,-0.0667,27.2550,-0.4833,26.8450,977,246,30,148,1
142.9000,-0.0167,27.2750,-1.6667,26.8450,980,250,37,149,1
143.0000,-0.0833,27.2550,-2.9167,26.8150,974,257,23,150,1
143.1000,-0.0167,27.2750,-0.4500,26.8000,984,252,30,151,1
143.2000,-0.0167,27.2400,-1.8667,26.7800,982,252,27,152,1
143.3000,0.0000,27.2400,-2.3000,26.8000,984,249,27,153,1
143.4000,0.0000,27.2400,-0.8167,26.8150,979,252,24,154,1
143.5000,0.0167,27.2750,-3.6667,26.7800,981,252,12,155,1
143.6000,0.0167,27.2250,-2.9667,26.8300,978,253,33,156,1
143.7000,0.0333,27.2900,-1.0667,26.7800,959,249,24,157,1
143.8000,0.0667,27.2550,1.4333,26.8000,974,264,38,158,1
143.9000,0.0333,27.2750,-1.3500,26.8150,980,248,21,159,1
144.0000,0.0333,27.2250,0.9833,26.8150,976,242,27,160,1
144.1000,0.0500,27.2750,0.5333,26.7650,963,255,42,161,1
144.2000,0.0500,27.2550,-0.9833,26.7800,976,248,36,162,1
144.3000,0.0500,27.2250,0.3000,26.8000,990,248,35,163,1
144.4000,0.0500,27.2400,-0.5500,26.8150,967,262,21,164,1
144.5000,0.0500,27.2400,-0.7167,26.8150,992,256,39,165,1
144.6000,0.0333,27.2550,0.6000,26.7800,974,250,38,166,1
144.7000,0.0500,27.2400,-0.0667,26.8000,964,260,35,167,1
144.8000,0.0500,27.2250,3.1000,26.8000,979,259,42,168,1
144.9000,0.0333,27.2550,2.7500,26.8150,980,240,29,169,1
145.0000,0.0333,27.2400,2.1000,26.8000,977,258,41,170,1
145.1000,0.0500,27.2400,0.1000,26.8000,975,257,33,171,1
145.2000,0.0167,27.2550,126.9333,26.8000,996,247,40,172,1
145.3000,0.0500,27.2400,232.0500,26.7350,982,249,27,173,1
145.4000,-0.0667,27.2250,319.6000,26.7800,982,259,33,174,1
145.5000,0.0333,27.2400,367.9667,26.8000,981,243,26,175,1
145.6000,0.0667,27.2400,402.2667,26.8000,984,254,17,176,1
145.7000,0.0667,27.2250,442.8333,26.8150,986,252,45,177,1
145.8000,0.0500,27.2400,455.2333,26.7650,978,264,27,178,1
145.9000,0.0500,27.2100,455.0500,26.8000,999,257,24,179,1
146.0000,0.0500,27.2400,432.2833,26.8000,989,260,27,180,1
146.1000,0.0333,27.2250,422.4667,26.7650,964,256,29,181,1
146.2000,0.0333,27.2100,421.0000,26.7800,968,258,28,182,1
146.3000,0.0333,27.2250,427.9167,26.7800,984,254,27,183,1
146.4000,0.0333,27.2400,435.8833,26.7800,969,262,40,184,1
146.5000,0.0500,27.2250,437.4833,26.7650,986,266,29,185,1
146.6000,0.0333,27.2250,441.1000,26.7650,988,262,31,186,1
146.7000,0.0333,27.2400,415.3333,26.7800,988,267,23,187,1
146.8000,0.0500,27.2250,411.5833,26.8300,977,272,34,188,1
146.9000,0.0500,27.2400,415.8833,26.7800,981,260,26,189,1
147.0000,0.0333,27.2250,401.7000,26.7350,975,254,30,190,1
147.1000,0.0333,27.2100,381.9500,26.8000,984,260,30,191,1
147.2000,0.0333,27.2400,370.8667,26.8000,978,258,22,192,1
147.3000,0.0333,27.2250,357.7000,26.8000,993,264,28,193,1
147.4000,0.0500,27.2100,343.9333,26.7800,967,266,25,194,1
147.5000,0.0500,27.2250,340.6333,26.7500,978,261,31,195,1
147.6000,0.0333,27.2100,335.9833,26.8000,971,259,33,196,1
147.7000,0.0500,27.2100,323.4500,26.7650,989,267,30,197,1
147.8000,0.0333,27.2100,298.5000,26.8000,990,267,30,198,1
147.9000,0.0333,27.2250,275.4667,26.7800,978,252,25,199,1
148.0000,0.0333,27.2400,252.2500,26.7800,982,265,33,200,1
148.1000,0.0167,27.2100,231.5833,26.7800,977,255,25,201,1
148.2000,0.0167,27.2400,170.6000,26.7650,975,253,36,202,1
148.3000,0.0333,27.2100,44.1667,26.7650,970,258,33,203,1
148.4000,0.0333,27.2250,-146.0500,26.7800,975,266,41,204,1
148.5000,0.0167,27.2250,-284.5000,26.7650,969,256,17,205,1
148.6000,0.0500,27.1950,-311.8000,26.7650,986,276,29,206,1
148.7000,0.0500,27.1950,-347.6833,26.8150,979,271,20,207,1
148.8000,0.0500,27.2250,-378.4667,26.7650,988,261,31,208,1
148.9000,0.0500,27.1950,-375.4667,26.7500,982,273,24,209,1
149.0000,0.0500,27.2250,-381.8667,26.7500,976,264,22,210,1
149.1000,0.0500,27.2100,-380.3000,26.7650,987,257,30,211,1
149.2000,0.0500,27.2250,-363.1000,26.7650,968,264,36,212,1
149.3000,0.0500,27.2100,-358.5333,26.7800,980,261,35,213,1
149.4000,0.0333,27.2100,-347.1167,26.7650,978,252,30,214,1
149.5000,0.0500,27.2250,-324.3000,26.7350,976,260,34,215,1
149.6000,0.0500,27.2250,-293.1167,26.7350,981,260,27,216,1
149.7000,0.0333,27.2250,-273.7500,26.7350,984,255,31,217,1
149.8000,0.0500,27.1950,-277.3667,26.7150,978,260,42,218,1
149.9000,0.0500,27.1750,-243.6000,26.7650,970,258,37,219,1
150.0000,0.0333,27.2100,-222.8500,26.7800,991,254,37,220,1
150.1000,0.0500,27.2100,-180.2000,26.7350,966,261,34,221,1
150.2000,0.0500,27.1950,-155.0000,26.7650,990,261,42,222,1
150.3000,0.0333,27.1750,-140.1000,26.7650,977,253,44,223,1
150.4000,0.0500,27.2100,-114.4167,26.7650,970,256,36,224,1
150.5000,0.0667,27.2400,-57.8667,26.7000,978,265,30,225,1
150.6000,0.0833,27.1950,119.7667,26.7800,958,276,24,226,1
150.7000,0.0500,27.1750,360.2667,26.7500,1031,243,7,227,1
150.8000,0.0333,27.1750,436.7667,26.7650,1095,254,67,228,1
150.9000,0.0667,27.1950,446.7333,26.7650,995,276,23,229,1
151.0000,0.0833,27.2100,462.5833,26.7500,951,256,0,230,1
151.1000,0.1000,27.2250,479.8333,26.7650,928,286,33,231,1
151.2000,0.0500,27.2100,467.0833,26.7350,968,251,44,232,1
151.3000,0.0167,27.1750,457.1000,26.7350,867,211,64,233,1
151.4000,0.0500,27.1600,452.5667,26.7650,934,260,47,234,1
151.5000,0.0833,27.1950,429.2667,26.7350,950,264,51,235,1
151.6000,0.0667,27.1600,403.4833,26.7350,980,246,39,236,1
151.7000,0.0167,27.2250,402.2500,26.7000,924,221,43,237,1
151.8000,0.1000,27.1600,398.6000,26.7000,977,289,34,238,1
151.9000,0.0833,27.1600,415.1833,26.7350,978,340,1,239,1
152.0000,0.0167,27.1950,427.3167,26.7500,1044,261,30,240,1
152.1000,0.0167,27.1750,411.8000,26.7350,1014,294,-29,241,1
152.2000,0.0833,27.1750,414.9333,26.7150,963,333,-9,242,1
152.3000,0.0333,27.1750,409.2833,26.7500,948,288,-75,243,1
152.4000,0.0500,27.2100,369.0667,26.7350,957,309,-102,244,1
152.5000,0.1000,27.1750,362.2000,26.7350,859,345,-123,245,1
152.6000,0.1167,27.1450,413.0833,26.7150,924,354,-108,246,1
152.7000,0.0500,27.1600,420.3333,26.7350,954,326,-144,247,1
152.8000,0.1000,27.1300,392.7833,26.7000,906,378,-136,248,1
152.9000,0.1500,27.1450,389.4000,26.7000,906,348,-134,249,1
153.0000,0.1167,27.1750,77.3833,26.7150,977,327,-111,250,1
153.1000,0.0833,27.1950,21.9167,26.7150,910,389,-61,251,1
153.2000,0.1000,27.1750,1.3333,26.7150,909,323,-92,252,1
153.3000,0.0500,27.1750,-30.4667,26.7000,1027,318,-105,253,1
153.4000,-0.4167,27.1750,-6.7667,26.7350,977,284,-66,254,1
153.5000,0.4333,27.1750,-3.7333,26.7350,891,372,-64,255,1
153.6000,-0.1000,27.1950,3.9167,26.7150,953,359,-93,0,1
153.7000,0.0500,27.1600,8.9333,26.6850,1032,202,-64,1,1
153.8000,0.0333,27.2100,7.2333,26.7150,945,293,-60,2,1
153.9000,0.1333,27.1600,22.0833,26.7000,949,365,-73,3,1
154.0000,0.0000,27.1750,12.9333,26.7150,1029,285,-77,4,1
154.1000,0.0000,27.1600,-1.5500,26.7000,987,319,-84,5,1
154.2000,0.1500,27.1750,-2.1500,26.7150,948,346,-36,6,1
154.3000,0.0500,27.1750,-3.8000,26.7500,979,247,-126,7,1
154.4000,0.0333,27.1750,-1.3833,26.7350,1034,264,-104,8,1
154.5000,0.0833,27.2100,-2.2333,26.7350,954,313,-136,9,1
154.6000,0.0667,27.1600,-1.9000,26.7150,998,252,-52,10,1
154.7000,0.0000,27.1450,-0.3000,26.6850,976,180,-135,11,1
154.8000,0.0667,27.1750,-0.8167,26.7150,976,246,-124,12,1
154.9000,0.0833,27.1950,-2.0833,26.7150,957,249,-215,13,1
155.0000,0.0000,27.1750,-0.3667,26.6850,999,216,-192,14,1
155.1000,0.0667,27.1750,0.4500,26.7000,942,295,-229,15,1
155.2000,0.1000,27.1600,-0.9000,26.7000,911,306,-276,16,1
155.3000,0.0333,27.1750,3.3500,26.7150,927,254,-341,17,1
155.4000,0.0333,27.1450,1.3333,26.7150,953,248,-330,18,1
155.5000,0.0667,27.1600,-0.5667,26.7150,952,277,-334,19,1
155.6000,0.0833,27.1450,7.6333,26.7150,848,208,-290,20,1
155.7000,0.0000,27.1600,427.0500,26.7000,879,253,-305,21,1
155.8000,0.1167,27.1600,460.3833,26.7000,837,270,-314,22,1
155.9000,0.1000,27.1750,463.6000,26.7000,912,289,-297,23,1
156.0000,0.0833,27.1600,464.6333,26.7000,934,285,-336,24,1
156.1000,0.1167,27.1950,476.7833,26.7000,877,349,-300,25,1
156.2000,0.1667,27.1450,433.2000,26.7000,822,386,-229,26,1
156.3000,0.1833,27.1750,433.9500,26.7150,975,303,-33,27,1
156.4000,0.1333,27.1600,397.6500,26.7150,1002,257,12,28,1
156.5000,0.1500,27.1750,371.3167,26.7150,1023,317,-15,29,1
156.6000,0.1500,27.2100,369.2167,26.6850,1020,366,-94,30,1
156.7000,0.1167,27.1750,349.2167,26.6850,936,356,-42,31,1
156.8000,0.1000,27.1600,371.9333,26.6700,954,341,45,32,1
156.9000,0.1333,27.1600,386.4833,26.6700,890,369,117,33,1
157.0000,0.0667,27.1600,384.2833,26.7000,966,353,78,34,1
157.1000,-0.0167,27.1300,317.6333,26.7000,740,291,110,35,1
157.2000,0.0833,27.1750,291.1667,26.6850,707,480,-105,36,1
157.3000,0.1500,27.1450,311.5333,26.6700,867,423,143,37,1
157.4000,0.0667,27.1450,278.5000,26.6850,993,152,277,38,1
157.5000,0.0667,27.1750,238.7000,26.7150,966,273,218,39,1
157.6000,0.0167,27.1450,243.2000,26.7000,1065,115,20,40,1
157.7000,0.1000,27.1300,250.6833,26.6850,1003,319,112,41,1
157.8000,0.0167,27.1600,231.2667,26.6850,981,218,165,42,1
157.9000,-0.0167,27.1450,232.6167,26.6850,831,95,155,43,1
158.0000,0.0500,27.1300,212.9667,26.6850,1096,52,249,44,1
158.1000,0.0500,27.1100,162.4500,26.6850,832,225,356,45,1
158.2000,0.0167,27.1300,91.3500,26.7150,905,144,226,46,1
158.3000,0.0833,27.1600,-2.8000,26.6700,964,203,222,47,1
158.4000,0.0500,27.1600,-171.3333,26.6700,1018,306,201,48,1
158.5000,0.0167,27.1450,-254.4167,26.6850,912,287,144,49,1
158.6000,0.0833,27.1450,-253.6500,26.7000,991,255,204,50,1
158.7000,0.0333,27.1600,-239.7500,26.6700,932,163,200,51,1
158.8000,0.0167,27.1300,-230.5167,26.6700,999,174,247,52,1
158.9000,0.0667,27.1300,-209.9000,26.7000,963,281,208,53,1
159.0000,0.0333,27.1300,-200.7000,26.6700,984,269,198,54,1
159.1000,0.0167,27.1450,-200.0333,26.6850,987,208,219,55,1
159.2000,0.0833,27.1750,-203.7000,26.6700,926,216,224,56,1
159.3000,0.0667,27.1300,-189.1167,26.6700,966,249,237,57,1
159.4000,0.0333,27.0950,-194.7333,26.6850,976,228,192,58,1
159.5000,0.0667,27.1300,-196.5000,26.6850,980,240,213,59,1
159.6000,0.0667,27.1600,-197.1167,26.6550,933,247,216,60,1
159.7000,0.0500,27.1300,-199.0667,26.6700,969,202,242,61,1
159.8000,0.0333,27.0950,-197.8833,26.7000,960,237,208,62,1
159.9000,0.0667,27.1100,-208.5333,26.6850,960,255,212,63,1
160.0000,0.0667,27.0950,-189.7167,26.7000,963,228,212,64,1
160.1000,0.0667,27.1100,-169.2500,26.6700,960,233,218,65,1
160.2000,0.0833,27.1100,-171.5667,26.6550,964,249,218,66,1
160.3000,0.0667,27.1450,-161.1167,26.6850,955,249,215,67,1
160.4000,0.0500,27.1100,-143.5000,26.6850,972,233,225,68,1
160.5000,0.0500,27.1300,-83.0833,26.6700,945,239,219,69,1
160.6000,0.0667,27.0950,2.5167,26.6700,955,240,219,70,1
160.7000,0.0500,27.1300,164.0667,26.6350,968,232,215,71,1
160.8000,0.0667,27.1450,289.5167,26.6850,977,234,223,72,1
160.9000,0.0667,27.1300,324.5667,26.7000,957,225,231,73,1
161.0000,0.0333,27.1300,327.5667,26.6700,963,218,226,74,1
161.1000,0.0500,27.0950,319.0500,26.6850,960,222,222,75,1
161.2000,0.0500,27.0950,313.3333,26.6350,958,225,216,76,1
161.3000,0.0500,27.1100,302.9000,26.6550,974,213,211,77,1
161.4000,0.0833,27.1300,275.0500,26.6550,949,237,218,78,1
161.5000,0.0833,27.1100,271.3833,26.6700,969,228,222,79,1
161.6000,0.0667,27.1300,259.5667,26.6550,964,219,216,80,1
161.7000,0.0667,27.1100,250.3000,26.6550,959,218,220,81,1
161.8000,0.0667,27.1450,238.5667,26.6550,959,226,222,82,1
161.9000,0.0500,27.1300,238.8500,26.6350,960,217,216,83,1
162.0000,0.0667,27.1100,232.9000,26.6350,957,213,217,84,1
162.1000,0.0667,27.1300,236.4000,26.6200,961,227,216,85,1
162.2000,0.0500,27.0950,227.8167,26.6350,966,228,220,86,1
162.3000,0.0500,27.0800,228.1833,26.6550,965,223,221,87,1
162.4000,0.0500,27.1100,218.8333,26.6550,960,235,219,88,1
162.5000,0.0667,27.0800,223.9167,26.6550,967,231,216,89,1
162.6000,0.0500,27.1300,227.7833,26.6550,963,222,217,90,1
162.7000,0.0667,27.1100,225.4167,26.6550,959,228,222,91,1
162.8000,0.0667,27.1300,220.6667,26.6700,955,228,219,92,1
162.9000,0.0500,27.1100,219.3833,26.6850,963,219,221,93,1
163.0000,0.0500,27.0800,209.3500,26.6550,968,226,219,94,1
163.1000,0.0500,27.0950,186.5833,26.6350,954,238,220,95,1
163.2000,0.0667,27.0950,103.2833,26.6200,965,228,225,96,1
163.3000,0.1000,27.1300,8.2000,26.6350,952,220,215,97,1
163.4000,0.0667,27.1300,13.4333,26.6200,966,242,219,98,1
163.5000,0.0667,27.0800,4.5833,26.6350,979,224,217,99,1
163.6000,0.0500,27.0950,15.0000,26.6700,957,234,221,100,1
163.7000,0.0667,27.1100,17.0500,26.6550,970,222,226,101,1
163.8000,0.0500,27.0650,4.5333,26.6350,968,214,225,102,1
163.9000,0.0667,27.1100,-28.6833,26.6550,973,231,228,103,1
164.0000,0.0833,27.1300,-5.4667,26.6200,963,208,207,104,1
164.1000,0.0667,27.1100,-9.0000,26.6200,977,218,225,105,1
164.2000,0.0500,27.1100,-115.8500,26.6350,943,218,218,106,1
164.3000,0.0500,27.0800,-123.1000,26.6350,972,210,231,107,1
164.4000,0.0667,27.0950,-165.8833,26.6050,960,213,214,108,1
164.5000,0.0500,27.0950,-219.0167,26.6700,954,209,220,109,1
164.6000,0.0500,27.0800,-236.2833,26.5900,955,217,211,110,1
164.7000,0.0333,27.0800,-232.9500,26.6200,963,209,209,111,1
164.8000,0.0667,27.0650,-236.6167,26.6350,958,217,225,112,1
164.9000,0.0833,27.0950,-240.1000,26.6350,966,222,219,113,1
165.0000,0.0667,27.0650,-219.5167,26.6050,975,201,217,114,1
165.1000,0.0667,27.0950,-217.9667,26.6350,972,218,219,115,1
165.2000,0.0667,27.0800,-212.2167,26.6050,960,219,222,116,1
165.3000,0.0333,27.0950,-202.7333,26.6350,969,210,217,117,1
165.4000,0.0667,27.0800,-203.1667,26.6050,961,213,212,118,1
165.5000,0.0833,27.0500,-213.1333,26.6350,964,231,215,119,1
165.6000,0.0500,27.0800,-222.4333,26.6200,974,215,215,120,1
165.7000,0.0333,27.0800,-219.5833,26.6200,956,213,208,121,1
165.8000,0.0500,27.0950,-199.6000,26.5900,966,220,227,122,1
165.9000,0.0500,27.0800,-202.1833,26.6200,958,220,210,123,1
166.0000,0.0500,27.0650,-165.7167,26.6050,975,207,219,124,1
166.1000,0.0667,27.1100,-130.5333,26.6200,959,224,210,125,1
166.2000,0.0667,27.0650,-108.1500,26.6200,976,227,217,126,1
166.3000,0.0500,27.0800,-107.9000,26.6550,956,219,207,127,1
166.4000,0.0500,27.0650,-27.5167,26.6200,966,221,223,128,1
166.5000,0.0667,27.0500,141.3000,26.6050,959,223,213,129,1
166.6000,0.0667,27.0800,261.9000,26.6050,960,228,219,130,1
166.7000,0.0667,27.0950,291.5667,26.5550,970,219,225,131,1
166.8000,0.0833,27.0800,302.5333,26.6200,957,210,213,132,1
166.9000,0.0667,27.0650,299.6333,26.6200,978,210,231,133,1
167.0000,0.0667,27.0650,272.0667,26.6050,933,210,208,134,1
167.1000,0.0667,27.0950,279.7167,26.6350,975,212,225,135,1
167.2000,0.0500,27.0800,277.8000,26.6200,956,198,231,136,1
167.3000,0.0500,27.0800,274.9333,26.5900,959,217,218,137,1
167.4000,0.0500,27.0800,261.0167,26.5900,957,226,215,138,1
167.5000,0.0500,27.0650,250.7167,26.5900,953,217,212,139,1
167.6000,0.0500,27.0650,247.7667,26.5900,975,217,219,140,1
167.7000,0.0500,27.0650,247.9667,26.6200,975,190,211,141,1
167.8000,0.0667,27.0800,253.8333,26.5900,960,222,218,142,1
167.9000,0.0833,27.0650,236.6167,26.5900,971,221,213,143,1
168.0000,0.0667,27.0650,249.9500,26.6200,960,209,218,144,1
168.1000,0.0667,27.0650,237.8833,26.5700,963,232,218,145,1
168.2000,0.0500,27.0650,244.6333,26.5900,977,234,216,146,1
168.3000,0.0500,27.0950,238.9000,26.5900,953,239,232,147,1
168.4000,0.0833,27.0800,230.0500,26.6050,948,247,222,148,1
168.5000,0.0667,27.0150,248.7167,26.6050,967,234,230,149,1
168.6000,0.0667,27.0500,254.3333,26.5900,946,226,225,150,1
168.7000,0.0833,27.0650,245.6500,26.5700,957,255,238,151,1
168.8000,0.0500,27.0500,251.4500,26.6050,960,237,221,152,1
168.9000,0.0500,27.0500,227.1333,26.5900,956,234,222,153,1
169.0000,0.0667,27.0500,217.7833,26.5900,963,255,220,154,1
169.1000,0.0500,27.0800,202.2500,26.5900,951,232,227,155,1
169.2000,0.0500,27.0800,189.0000,26.6050,962,233,228,156,1
169.3000,0.0833,27.0300,174.0167,26.5900,955,241,219,157,1
169.4000,0.0833,27.0500,128.3667,26.5900,965,243,226,158,1
169.5000,0.0500,27.0800,5.7833,26.5700,957,228,224,159,1
169.6000,0.0500,27.0500,-49.7500,26.5700,960,237,222,160,1
169.7000,0.0667,27.0650,-88.1833,26.6050,963,233,222,161,1
169.8000,0.0667,27.0500,-128.9833,26.6050,960,234,227,162,1
169.9000,0.0667,27.0650,-157.5500,26.5900,957,237,224,163,1
170.0000,0.0833,27.0650,-253.2167,26.5900,962,230,223,164,1
170.1000,0.0667,27.0650,-332.1167,26.6200,960,223,223,165,1
170.2000,0.0667,27.0800,-316.3167,26.6050,974,228,232,166,1
170.3000,0.0500,27.0300,-309.8000,26.6050,953,220,225,167,1
170.4000,0.0500,27.0500,-319.7333,26.5700,971,227,224,168,1
170.5000,0.0500,27.0500,-291.8000,26.5400,958,226,209,169,1
170.6000,0.0500,27.0800,-259.2000,26.6050,958,226,235,170,1
170.7000,0.0500,27.0650,-240.7333,26.6050,957,223,225,171,1
170.8000,0.0667,27.0150,-210.3833,26.6050,949,240,214,172,1
170.9000,0.0667,27.0650,-194.6333,26.6050,972,251,224,173,1
171.0000,0.0667,27.0300,-190.5833,26.5900,960,225,218,174,1
171.1000,0.0500,27.0500,-189.8833,26.5700,970,242,237,175,1
171.2000,0.0667,27.0650,-183.7833,26.5900,948,236,203,176,1
171.3000,0.0833,27.0650,-187.4500,26.6200,975,247,218,177,1
171.4000,0.0667,27.0500,-201.5000,26.5550,955,237,219,178,1
171.5000,0.0667,27.0300,-191.8000,26.6050,954,231,220,179,1
171.6000,0.0667,27.0650,-147.8167,26.5700,945,235,211,180,1
171.7000,0.0833,27.0500,-132.7833,26.5550,962,240,214,181,1
171.8000,0.0833,27.0650,-117.7833,26.6050,955,224,223,182,1
171.9000,0.0667,27.0300,-93.7500,26.5900,950,217,213,183,1
172.0000,0.0833,27.0500,-66.2833,26.5700,972,235,225,184,1
172.1000,0.0667,27.0500,-28.2000,26.5400,942,225,209,185,1
172.2000,0.0500,27.0500,-2.6000,26.6050,971,229,222,186,1
172.3000,0.0667,27.0650,122.2333,26.6050,947,230,215,187,1
172.4000,0.0500,27.0650,249.2500,26.5900,969,226,216,188,1
172.5000,0.0500,27.0500,310.3000,26.5700,984,237,216,189,1
172.6000,0.0500,27.0650,334.1667,26.5700,951,228,224,190,1
172.7000,0.0500,27.0300,337.7667,26.5550,980,257,192,191,1
172.8000,0.0500,27.0500,326.8333,26.5900,943,158,225,192,1
172.9000,0.0667,27.0150,330.0333,26.5900,969,220,218,193,1
173.0000,0.0500,27.0000,332.6833,26.5400,965,233,212,194,1
173.1000,0.0500,27.0500,327.9667,26.5550,976,216,219,195,1
173.2000,0.0500,27.0300,332.6167,26.5700,951,240,221,196,1
173.3000,0.0500,27.0650,323.8000,26.5700,977,237,221,197,1
173.4000,0.0333,27.0500,311.2667,26.5700,961,226,214,198,1
173.5000,0.0500,27.0500,293.8167,26.5400,962,233,224,199,1
173.6000,0.0500,27.0800,288.2667,26.5550,960,229,221,200,1
173.7000,0.0500,27.0650,285.0167,26.5550,966,225,223,201,1
173.8000,0.0500,27.0300,285.2000,26.5550,967,232,225,202,1
173.9000,0.0667,27.0500,275.5333,26.5550,954,228,212,203,1
174.0000,0.0500,27.0650,259.7000,26.5400,966,225,231,204,1
174.1000,0.0667,27.0500,260.9833,26.5100,950,237,219,205,1
174.2000,0.0500,27.0300,242.5667,26.5700,965,231,220,206,1
174.3000,0.0500,27.0500,235.0000,26.5700,966,228,221,207,1
174.4000,0.0667,27.0150,220.9833,26.5550,959,230,219,208,1
174.5000,0.0500,27.0300,211.8167,26.5250,966,228,222,209,1
174.6000,0.0667,27.0500,204.7167,26.6050,959,223,224,210,1
174.7000,0.0500,27.0300,188.0833,26.5550,961,229,230,211,1
174.8000,0.0500,27.0300,184.1000,26.5250,955,228,219,212,1
174.9000,0.0500,27.0150,160.2500,26.5700,961,218,222,213,1
175.0000,0.0500,27.0000,102.2167,26.5100,958,232,228,214,1
175.1000,0.0500,27.0300,-55.3500,26.5550,953,228,223,215,1
175.2000,0.0333,27.0500,-251.4500,26.5700,971,224,216,216,1
175.3000,0.0667,27.0500,-286.1667,26.5400,956,221,217,217,1
175.4000,0.0667,27.0300,-302.7000,26.5400,964,228,227,218,1
175.5000,0.0500,27.0500,-292.6500,26.5700,963,221,222,219,1
175.6000,0.0500,27.0300,-292.4167,26.5400,957,233,222,220,1
175.7000,0.0500,27.0150,-279.7667,26.5550,964,235,215,221,1
175.8000,0.0500,27.0500,-273.3333,26.5400,965,224,224,222,1
175.9000,0.0500,27.0150,-274.3333,26.5400,954,226,224,223,1
176.0000,0.0500,27.0300,-276.4000,26.5550,960,224,230,224,1
176.1000,0.0500,27.0300,-270.5833,26.5550,955,228,221,225,1
176.2000,0.0667,27.0150,-257.0833,26.5400,968,231,224,226,1
176.3000,0.0833,27.0300,-252.8500,26.5400,965,231,219,227,1
176.4000,0.0667,27.0500,-240.8667,26.5400,972,214,222,228,1
176.5000,0.0500,27.0000,-268.6667,26.5400,963,216,221,229,1
176.6000,0.0500,27.0300,-253.2667,26.5250,957,233,213,230,1
176.7000,0.0333,27.0300,-249.9833,26.5550,968,221,213,231,1
176.8000,0.0500,27.0150,-244.5833,26.5400,956,219,219,232,1
176.9000,0.0500,27.0150,-235.2167,26.5400,963,220,220,233,1
177.0000,0.0500,27.0000,-203.2333,26.4900,966,223,220,234,1
177.1000,0.0500,26.9850,-178.8333,26.5400,957,219,216,235,1
177.2000,0.0500,27.0150,-154.5000,26.5400,957,231,218,236,1
177.3000,0.0333,27.0000,-113.9667,26.5550,958,221,214,237,1
177.4000,0.0500,27.0150,-93.1833,26.5400,961,225,217,238,1
177.5000,0.0667,27.0150,31.1833,26.5550,966,228,217,239,1
177.6000,0.0500,27.0000,143.4500,26.5100,965,224,213,240,1
177.7000,0.0667,27.0000,238.6500,26.5250,963,217,219,241,1
177.8000,0.0667,27.0000,288.3500,26.5250,966,222,216,242,1
177.9000,0.0667,27.0150,281.9000,26.5550,973,220,223,243,1
178.0000,0.0667,27.0000,271.6667,26.5400,957,228,222,244,1
178.1000,0.0667,27.0000,263.2000,26.5550,962,220,220,245,1
178.2000,0.0500,27.0150,256.9833,26.5100,956,205,220,246,1
178.3000,0.0500,27.0000,253.3500,26.5100,963,209,214,247,1
178.4000,0.0500,27.0000,241.7667,26.5400,970,217,219,248,1
178.5000,0.0500,27.0150,232.9833,26.5250,956,210,211,249,1
178.6000,0.0500,27.0500,210.4667,26.5400,972,216,223,250,1
178.7000,0.0500,27.0150,205.9667,26.5400,963,219,218,251,1
178.8000,0.0500,27.0000,206.6833,26.5250,972,218,225,252,1
178.9000,0.0500,26.9850,221.8000,26.5400,960,220,222,253,1
179.0000,0.0500,26.9700,228.6167,26.5250,963,228,231,254,1
179.1000,0.0333,27.0150,225.8167,26.5700,972,219,221,255,1
179.2000,0.0333,27.0150,231.4000,26.5250,957,223,222,0,1
179.3000,0.0667,26.9850,213.2167,26.5100,965,237,226,1,1
179.4000,0.0500,27.0300,212.8000,26.5250,962,222,221,2,1
179.5000,0.0500,27.0150,202.8833,26.5250,971,228,222,3,1
179.6000,0.0667,27.0150,188.1000,26.5400,954,217,223,4,1
179.7000,0.0667,26.9850,193.7833,26.5250,971,222,225,5,1
179.8000,0.0667,26.9850,191.4667,26.5250,958,226,224,6,1
179.9000,0.0667,26.9850,193.2000,26.5400,960,225,220,7,1
180.0000,0.0500,27.0000,207.0500,26.5250,966,213,225,8,1
180.1000,0.0500,27.0000,204.1000,26.5250,961,213,225,9,1
180.2000,0.0667,27.0150,187.9833,26.5250,954,234,234,10,1
180.3000,0.0500,26.9850,186.5833,26.5250,953,216,224,11,1
180.4000,0.0333,26.9850,177.8167,26.5250,970,212,208,12,1
180.5000,0.0833,26.9850,88.7833,26.5250,845,105,254,13,1
180.6000,0.0333,26.9850,12.4167,26.5250,943,60,227,14,1
180.7000,0.0667,26.9850,-2.0667,26.5250,966,228,231,15,1
180.8000,0.0500,26.9850,-2.3500,26.5250,960,200,237,16,1
180.9000,0.0000,27.0000,79.9167,26.5250,965,181,250,17,1
181.0000,0.2667,26.9850,4.8167,26.4900,911,266,169,18,1
181.1000,0.0667,26.9500,-0.7167,26.5550,993,279,225,19,1
181.2000,0.0000,26.9700,-1.5333,26.5100,977,187,182,20,1
181.3000,-0.1500,27.0150,35.1333,26.5100,1030,168,243,21,1
181.4000,-0.3667,27.0000,19.7667,26.5100,891,168,156,22,1
181.5000,0.0833,26.9700,-5.0500,26.5100,932,241,272,23,1
181.6000,0.0167,26.9700,1.4167,26.5100,967,152,201,24,1
181.7000,-0.2833,26.9850,8.0500,26.5100,1004,132,189,25,1
181.8000,0.0500,26.9850,11.1833,26.5100,931,222,169,26,1
181.9000,0.1167,27.0000,4.3000,26.4900,968,230,223,27,1
182.0000,0.0333,27.0300,0.4333,26.5100,954,49,267,28,1
182.1000,0.0667,27.0150,-5.7833,26.5400,999,224,258,29,1
182.2000,0.1000,27.0000,-7.2000,26.5250,918,294,227,30,1
182.3000,0.0833,26.9850,-10.4667,26.5550,1001,239,228,31,1
182.4000,0.0333,27.0000,-43.1167,26.4750,960,198,199,32,1
182.5000,0.0833,26.9850,-136.9000,26.5100,975,257,233,33,1
182.6000,0.0500,26.9850,-97.1500,26.5400,971,212,225,34,1
182.7000,0.0167,27.0000,-59.2833,26.4900,981,214,222,35,1
182.8000,0.0667,26.9700,-118.8833,26.4900,953,241,227,36,1
182.9000,0.0500,26.9700,-141.7833,26.4750,952,220,214,37,1
183.0000,0.0000,26.9700,-151.4333,26.5250,986,183,237,38,1
183.1000,0.0500,27.0000,-208.1500,26.5100,951,234,207,39,1
183.2000,0.0833,27.0000,-222.1000,26.5100,980,232,231,40,1
183.3000,0.0333,27.0000,-231.8167,26.5250,964,165,219,41,1
183.4000,0.0500,27.0000,-243.5833,26.5550,943,211,232,42,1
183.5000,0.0667,27.0000,-240.7167,26.5100,942,240,228,43,1
183.6000,0.0167,27.0000,-225.3333,26.4900,947,185,204,44,1
183.7000,0.0333,26.9850,-214.4000,26.5250,996,226,226,45,1
183.8000,0.0500,26.9850,-188.9333,26.4900,975,247,201,46,1
183.9000,0.0333,27.0000,-191.7500,26.4750,981,201,221,47,1
184.0000,0.0333,26.9700,-168.7333,26.5100,962,222,220,48,1
184.1000,0.0500,26.9850,-160.2500,26.4750,958,221,232,49,1
184.2000,0.0333,26.9700,-174.1333,26.4900,945,186,225,50,1
184.3000,0.0333,26.9850,-146.9167,26.4750,929,194,247,51,1
184.4000,0.0667,27.0000,-132.8333,26.5100,928,179,231,52,1
184.5000,0.0833,26.9500,-107.3500,26.5250,948,192,212,53,1
184.6000,0.0667,26.9850,-98.0833,26.5100,963,216,254,54,1
184.7000,0.0833,26.9700,-105.3667,26.5100,924,223,207,55,1
184.8000,0.0667,26.9850,-83.6833,26.5250,984,234,238,56,1
184.9000,0.0500,26.9700,-72.3167,26.4900,958,198,216,57,1
185.0000,0.0667,27.0000,-54.4000,26.5100,966,209,246,58,1
185.1000,0.0500,26.9700,-22.2167,26.5250,957,208,231,59,1
185.2000,0.0500,26.9500,29.4333,26.5250,972,205,239,60,1
185.3000,0.0667,26.9850,87.7833,26.5100,952,212,225,61,1
185.4000,0.0667,26.9700,179.9833,26.4900,956,228,237,62,1
185.5000,0.0667,26.9850,229.8167,26.5100,955,207,239,63,1
185.6000,0.0667,27.0000,270.7667,26.5250,965,202,242,64,1
185.7000,0.0667,26.9700,271.5833,26.4900,963,217,238,65,1
185.8000,0.0500,26.9350,274.0167,26.4750,957,212,225,66,1
185.9000,0.0500,26.9500,285.7333,26.4750,965,207,238,67,1
186.0000,0.0500,26.9850,286.2500,26.5100,960,213,236,68,1
186.1000,0.0500,26.9500,287.9167,26.5100,961,204,236,69,1
186.2000,0.0500,26.9500,289.6500,26.5250,967,216,236,70,1
186.3000,0.0667,26.9700,285.5500,26.4900,963,213,240,71,1
186.4000,0.0500,26.9500,251.5500,26.4900,957,201,235,72,1
186.5000,0.0500,26.9850,251.3500,26.4750,963,208,241,73,1
186.6000,0.0500,26.9500,249.5000,26.4900,965,213,231,74,1
186.7000,0.0333,26.9500,251.1167,26.4900,965,207,240,75,1
186.8000,0.0333,26.9850,252.6333,26.4600,963,199,235,76,1
186.9000,0.0500,26.9500,248.5167,26.4900,957,202,234,77,1
187.0000,0.0500,26.9700,251.3667,26.4900,964,201,240,78,1
187.1000,0.0500,26.9850,235.1000,26.4750,961,209,230,79,1
187.2000,0.0500,26.9700,237.9833,26.4750,972,198,234,80,1
187.3000,0.0500,26.9700,229.0167,26.4900,957,206,231,81,1
187.4000,0.0333,26.9850,234.7500,26.4600,964,212,238,82,1
187.5000,0.0333,26.9700,227.9833,26.4600,964,204,231,83,1
187.6000,0.0500,26.9700,226.5667,26.4900,957,209,240,84,1
187.7000,0.0500,26.9850,239.7000,26.5100,964,210,240,85,1
187.8000,0.0500,26.9700,230.4833,26.4750,953,207,228,86,1
187.9000,0.0500,26.9700,212.5833,26.4750,971,212,238,87,1
188.0000,0.0667,26.9850,191.5000,26.4750,950,210,231,88,1
188.1000,0.0500,26.9850,185.3667,26.4250,975,204,234,89,1
188.2000,0.0667,26.9850,163.7333,26.4900,957,209,226,90,1
188.3000,0.0667,26.9850,142.6667,26.4750,957,200,234,91,1
188.4000,0.0667,26.9700,34.5000,26.4450,967,204,238,92,1
188.5000,0.1000,26.9350,-110.0500,26.4600,950,210,232,93,1
188.6000,0.0667,26.9850,-231.3167,26.4900,970,195,240,94,1
188.7000,0.0833,26.9850,-268.7833,26.4750,958,189,238,95,1
188.8000,0.0833,26.9500,-268.5000,26.4600,965,204,234,96,1
188.9000,0.0833,26.9350,-256.2167,26.5250,959,205,231,97,1
189.0000,0.0833,26.9850,-236.1333,26.4600,956,199,240,98,1
189.1000,0.0833,26.9700,-234.8167,26.4900,962,207,241,99,1
189.2000,0.0667,26.9850,-230.4000,26.4600,963,198,235,100,1
189.3000,0.0667,26.9200,-231.7667,26.4900,961,209,239,101,1
189.4000,0.0667,26.9700,-231.8167,26.4600,960,203,233,102,1
189.5000,0.0667,26.9700,-225.0500,26.4750,966,198,233,103,1
189.6000,0.0667,26.9700,-217.3167,26.4750,966,204,237,104,1
189.7000,0.0833,26.9700,-212.0833,26.4250,955,213,235,105,1
189.8000,0.0833,26.9700,-210.2000,26.4600,969,204,234,106,1
189.9000,0.0667,26.9200,-200.8833,26.4600,961,207,234,107,1
190.0000,0.0667,26.9350,-196.8833,26.5100,963,204,240,108,1
190.1000,0.0667,26.9500,-199.4167,26.4600,972,211,238,109,1
190.2000,0.0500,26.9350,-192.7000,26.4600,951,201,237,110,1
190.3000,0.0500,26.9850,-196.8000,26.5100,966,209,237,111,1
190.4000,0.0667,26.9700,-192.7500,26.4600,961,206,242,112,1
190.5000,0.0667,26.9500,-177.8000,26.4600,973,204,239,113,1
190.6000,0.0667,26.9500,-166.8000,26.4750,955,189,240,114,1
190.7000,0.0667,26.9350,-153.7500,26.4750,964,214,243,115,1
190.8000,0.0667,26.9500,-141.5333,26.4600,961,201,234,116,1
190.9000,0.0500,26.9500,-152.0333,26.5100,960,203,233,117,1
191.0000,0.0667,26.9700,-133.1833,26.4600,963,213,240,118,1
191.1000,0.0500,26.9500,-142.1500,26.4450,953,198,233,119,1
191.2000,0.0500,26.9200,-150.3167,26.4750,963,210,242,120,1
191.3000,0.0667,26.9500,-136.3500,26.4450,963,201,228,121,1
191.4000,0.0500,26.9350,-91.8000,26.5100,974,198,233,122,1
191.5000,0.0333,26.9350,-29.7833,26.4750,966,207,225,123,1
191.6000,0.0667,26.9200,-21.3667,26.4100,958,182,243,124,1
191.7000,0.0667,26.9850,17.2333,26.4750,960,198,252,125,1
191.8000,0.0500,26.9700,10.1833,26.4600,959,188,252,126,1
191.9000,0.0500,26.9850,1.2667,26.4750,957,216,234,127,1
192.0000,0.0500,26.9350,12.7167,26.4750,975,208,247,128,1
192.1000,0.0500,26.9700,5.1167,26.4450,960,201,233,129,1
192.2000,0.0500,26.9500,0.1667,26.4450,964,198,253,130,1
192.3000,0.0667,26.9350,-61.0667,26.4250,957,193,239,131,1
192.4000,0.0500,26.9200,162.7167,26.4750,946,184,249,132,1
192.5000,0.0500,26.9500,258.5833,26.4750,948,192,223,133,1
192.6000,0.0667,26.9350,252.9667,26.4750,965,193,246,134,1
192.7000,0.0333,26.9500,251.9833,26.4750,959,195,237,135,1
192.8000,0.0500,26.9850,264.6000,26.4600,960,196,240,136,1
192.9000,0.0500,26.9200,256.1167,26.4900,955,200,243,137,1
193.0000,0.0333,26.9350,254.9500,26.4900,969,188,241,138,1
193.1000,0.0500,26.9350,252.2500,26.4750,963,196,240,139,1
193.2000,0.0500,26.9500,237.3500,26.4450,954,192,231,140,1
193.3000,0.0500,26.9200,236.8500,26.4600,964,194,249,141,1
193.4000,0.0500,26.9050,238.6833,26.4600,954,189,233,142,1
193.5000,0.0500,26.9700,237.2500,26.4750,978,192,243,143,1
193.6000,0.0500,26.9850,234.0333,26.4750,960,193,229,144,1
193.7000,0.0333,26.9700,233.6500,26.4450,963,198,237,145,1
193.8000,0.0500,26.9850,239.7833,26.4750,962,187,237,146,1
193.9000,0.0333,26.9200,233.1667,26.4450,967,193,243,147,1
194.0000,0.0500,26.9500,218.8000,26.4600,964,197,234,148,1
194.1000,0.0500,26.9500,223.1500,26.4600,965,190,240,149,1
194.2000,0.0333,26.9500,208.8500,26.4600,961,192,245,150,1
194.3000,0.0500,26.9200,199.5333,26.4750,956,186,234,151,1
194.4000,0.0667,26.9350,185.4500,26.4750,969,206,248,152,1
194.5000,0.0500,26.9200,147.6833,26.4750,969,196,234,153,1
194.6000,0.0500,26.9350,114.3833,26.4250,963,180,243,154,1
194.7000,0.0500,26.9200,81.1833,26.4450,972,192,240,155,1
194.8000,0.0500,26.9350,18.2500,26.4750,957,204,236,156,1
194.9000,0.0500,26.9350,-15.4667,26.4250,957,189,222,157,1
195.0000,0.0500,26.9500,-50.0333,26.4450,968,177,243,158,1
195.1000,0.0333,26.9050,-77.8000,26.4450,972,180,236,159,1
195.2000,0.0500,26.9350,-116.9333,26.4250,966,198,235,160,1
195.3000,0.0333,26.9350,-155.0667,26.4450,964,177,228,161,1
195.4000,0.0667,26.9850,-240.5833,26.4250,963,184,237,162,1
195.5000,0.0833,26.9200,-232.0500,26.4600,980,199,231,163,1
195.6000,0.0500,26.9350,-259.6000,26.4450,961,198,228,164,1
195.7000,0.0667,26.9200,-297.0667,26.4600,970,192,233,165,1
195.8000,0.0667,26.9350,-292.2833,26.4750,957,168,242,166,1
195.9000,0.0500,26.9350,-268.4833,26.4450,964,186,236,167,1
196.0000,0.0500,26.9050,-238.9833,26.4600,968,185,235,168,1
196.1000,0.0500,26.8850,-231.6500,26.4100,952,192,237,169,1
196.2000,0.0500,26.9350,-211.4667,26.4250,972,186,236,170,1
196.3000,0.0500,26.9200,-199.4167,26.4600,965,168,233,171,1
196.4000,0.0333,26.9200,-215.6333,26.4600,969,179,234,172,1
196.5000,0.0333,26.9500,-198.6667,26.4600,962,183,232,173,1
196.6000,0.0333,26.9200,-203.5333,26.4600,969,192,237,174,1
196.7000,0.0500,26.9350,-199.7167,26.4250,969,183,232,175,1
196.8000,0.0667,26.9350,-199.8000,26.4450,970,190,231,176,1
196.9000,0.1000,26.9350,-174.7833,26.4450,961,175,226,177,1
197.0000,0.1000,26.9200,-159.7500,26.4250,971,188,226,178,1
197.1000,0.0833,26.9200,-137.0667,26.4250,975,190,239,179,1
197.2000,0.0833,26.9500,-145.1167,26.4450,960,181,229,180,1
197.3000,0.0667,26.9350,-133.8333,26.4450,994,180,246,181,1
197.4000,0.0833,26.9050,-156.8500,26.4250,984,180,225,182,1
197.5000,0.0667,26.9050,-134.9167,26.4450,972,176,231,183,1
197.6000,0.0667,26.9200,-105.6167,26.4600,959,173,221,184,1
197.7000,0.0667,26.9200,-72.4500,26.4450,977,191,237,185,1
197.8000,0.0667,26.9200,-32.3333,26.3950,984,168,241,186,1
197.9000,0.0667,26.9200,9.3500,26.4600,988,173,238,187,1
198.0000,0.0667,26.9200,26.6500,26.4450,969,183,233,188,1
198.1000,0.0500,26.9050,66.2667,26.4450,961,187,229,189,1
198.2000,-0.0167,26.9050,103.5500,26.4450,964,187,240,190,1
198.3000,-0.0500,26.9050,114.1667,26.4600,972,165,231,191,1
198.4000,-0.5333,26.9050,122.2167,26.4100,978,179,242,192,1
198.5000,-0.4500,26.9200,146.5500,26.4250,975,174,227,193,1
198.6000,-0.0167,26.9200,165.8667,26.4450,972,183,234,194,1
198.7000,0.0500,26.9200,205.6167,26.4450,962,180,226,195,1
198.8000,0.0833,26.9200,225.8500,26.4100,971,179,235,196,1
198.9000,0.0500,26.9500,219.4167,26.4250,968,174,231,197,1
199.0000,0.0500,26.9200,228.4167,26.4600,977,170,235,198,1
199.1000,0.0833,26.9050,218.3500,26.3950,966,188,237,199,1
199.2000,0.1000,26.9350,189.5833,26.4600,962,174,232,200,1
199.3000,0.0833,26.9200,182.1167,26.4100,964,189,231,201,1
199.4000,0.0667,26.9500,175.2167,26.4450,963,179,232,202,1
199.5000,0.0500,26.9200,172.5333,26.4100,960,182,241,203,1
199.6000,0.0500,26.9350,155.4167,26.4250,966,187,237,204,1
199.7000,0.0333,26.9200,149.3000,26.4450,969,182,237,205,1
199.8000,0.0500,26.9050,143.6167,26.4250,966,186,239,206,1
199.9000,0.0667,26.9500,142.4500,26.4450,959,195,232,207,1
200.0000,0.0667,26.9350,146.5833,26.4100,975,178,237,208,1
200.1000,0.0500,26.9350,128.3833,26.4100,972,188,242,209,1
200.2000,0.0500,26.9200,121.3333,26.4100,960,179,237,210,1
200.3000,0.0667,26.9350,109.3833,26.4100,965,187,243,211,1
200.4000,0.0667,26.8850,121.6333,26.4250,959,185,242,212,1
200.5000,0.0667,26.8850,123.7167,26.4100,965,182,239,213,1
200.6000,0.0667,26.9350,115.2333,26.4250,963,193,232,214,1
200.7000,0.0667,26.9050,107.1833,26.4250,972,186,246,215,1
200.8000,0.0500,26.9050,69.8500,26.3950,963,184,241,216,1
200.9000,0.0500,26.9350,15.2167,26.4100,962,183,242,217,1
201.0000,0.0667,26.9050,-21.5167,26.4100,980,186,248,218,1
201.1000,0.0500,26.8850,-43.3000,26.4250,958,183,239,219,1
201.2000,0.0500,26.9050,-45.4833,26.4450,969,190,238,220,1
201.3000,0.0500,26.9050,-69.4167,26.4250,968,182,238,221,1
201.4000,0.0500,26.9500,-117.1333,26.4100,963,185,233,222,1
201.5000,0.0500,26.9200,-165.7500,26.4250,972,186,249,223,1
201.6000,0.0667,26.9050,-248.7500,26.4600,959,186,234,224,1
201.7000,0.0500,26.9350,-273.9000,26.4100,975,175,246,225,1
201.8000,0.0667,26.8850,-287.5667,26.4250,956,183,231,226,1
201.9000,0.0500,26.9050,-275.4000,26.4100,969,183,237,227,1
202.0000,0.0500,26.8550,-270.8667,26.4250,959,179,230,228,1
202.1000,0.0333,26.9350,-271.5667,26.4250,971,174,241,229,1
202.2000,0.0333,26.9350,-249.4500,26.4250,963,177,240,230,1
202.3000,0.0333,26.9050,-227.8833,26.3800,970,180,233,231,1
202.4000,0.0500,26.9050,-211.6000,26.4100,973,185,240,232,1
202.5000,0.0667,26.9200,-197.6333,26.4100,957,183,234,233,1
202.6000,0.0667,26.9200,-178.1167,26.4100,970,183,242,234,1
202.7000,0.0667,26.8850,-161.2167,26.3800,966,186,236,235,1
202.8000,0.0667,26.8850,-134.9333,26.3950,963,195,243,236,1
202.9000,0.0500,26.8850,-116.1500,26.4100,966,196,242,237,1
203.0000,0.0667,26.8850,-138.1333,26.4450,964,182,244,238,1
203.1000,0.0833,26.8850,-127.2833,26.4250,976,186,243,239,1
203.2000,0.1000,26.9200,-115.0667,26.4600,956,187,235,240,1
203.3000,0.0833,26.9200,-121.8500,26.3800,978,195,244,241,1
203.4000,0.0667,26.8850,-109.6167,26.4250,948,182,241,242,1
203.5000,0.0667,26.8850,-76.2500,26.4100,972,180,244,243,1
203.6000,0.0667,26.9050,-50.0833,26.4250,963,190,231,244,1
203.7000,0.0667,26.9200,-34.3000,26.4450,960,190,234,245,1
203.8000,0.0500,26.8850,-22.2000,26.4100,966,177,236,246,1
203.9000,0.0667,26.8700,-20.6000,26.4100,923,197,252,247,1
204.0000,0.0833,26.9200,7.0333,26.3950,965,204,241,248,1
204.1000,0.0833,26.8850,-1.2833,26.4100,959,196,231,249,1
204.2000,0.0667,26.8850,4.9000,26.4250,976,202,233,250,1
204.3000,0.0667,26.9200,77.3167,26.4100,963,195,237,251,1
204.4000,0.0667,26.9050,183.6333,26.3800,966,180,237,252,1
204.5000,0.0500,26.9050,217.1833,26.4100,963,195,235,253,1
204.6000,0.0500,26.8700,217.6667,26.4450,961,178,238,254,1
204.7000,0.0500,26.8850,204.7000,26.3950,960,177,241,255,1
204.8000,0.0500,26.9200,205.8000,26.4450,957,189,247,0,1
204.9000,0.0667,26.9200,195.6667,26.4100,970,181,237,1,1
205.0000,0.0667,26.8850,196.1667,26.3800,955,187,237,2,1
205.1000,0.0667,26.9350,181.9667,26.3950,975,186,244,3,1
205.2000,0.0667,26.9200,175.4833,26.3950,971,181,234,4,1
205.3000,0.0667,26.8850,179.7833,26.4100,960,184,238,5,1
205.4000,0.0667,26.9050,170.6500,26.4450,970,183,241,6,1
205.5000,0.0500,26.9350,174.5167,26.4250,960,184,238,7,1
205.6000,0.0500,26.8850,166.3667,26.3950,964,190,250,8,1
205.7000,0.0500,26.8850,158.2167,26.4100,973,175,236,9,1
205.8000,0.0833,26.8700,154.1833,26.3950,964,189,243,10,1
205.9000,0.0667,26.9200,157.5500,26.3950,963,184,239,11,1
206.0000,0.0500,26.8850,162.7333,26.3950,960,177,237,12,1
206.1000,0.0500,26.8850,152.6667,26.4250,963,186,237,13,1
206.2000,0.0667,26.8850,160.6667,26.4250,967,173,243,14,1
206.3000,0.0500,26.8850,163.9333,26.3950,963,177,236,15,1
206.4000,0.0667,26.8550,172.3500,26.3950,963,183,241,16,1
206.5000,0.0667,26.9200,188.4833,26.4250,966,169,233,17,1
206.6000,0.0667,26.8850,196.0333,26.3950,972,174,243,18,1
206.7000,0.0667,26.9050,180.9167,26.4100,960,180,236,19,1
206.8000,0.0667,26.9050,189.6667,26.3800,974,178,237,20,1
206.9000,0.0500,26.9050,183.4333,26.4100,965,171,238,21,1
207.0000,0.0500,26.8850,177.9000,26.4100,969,180,236,22,1
207.1000,0.0500,26.8850,166.7000,26.4250,952,178,246,23,1
207.2000,0.0500,26.9200,146.6167,26.3800,956,176,240,24,1
207.3000,0.0500,26.9200,102.5667,26.3650,980,194,242,25,1
207.4000,0.0500,26.8400,-19.9167,26.3950,957,183,240,26,1
207.5000,0.0500,26.8850,0.3000,26.3800,961,192,245,27,1
207.6000,0.0333,26.9050,43.1500,26.4100,992,190,222,28,1
207.7000,0.0500,26.8700,15.7000,26.4250,969,166,242,29,1
207.8000,0.0500,26.9200,4.8833,26.4100,961,172,243,30,1
207.9000,0.0667,26.9050,11.3667,26.3800,967,180,246,31,1
208.0000,0.0667,26.9050,8.8000,26.3950,965,182,240,32,1
208.1000,0.0500,26.9200,5.7500,26.4100,970,189,242,33,1
208.2000,0.0500,26.8700,-13.6667,26.3650,951,175,249,34,1
208.3000,0.0333,26.9050,-1.5500,26.4100,957,186,232,35,1
208.4000,0.0500,26.8550,-5.6167,26.4100,986,189,244,36,1
208.5000,0.0333,26.8550,-4.3833,26.4100,960,178,231,37,1
208.6000,0.0667,26.8850,-12.3000,26.3950,968,186,240,38,1
208.7000,0.0500,26.8700,-56.8833,26.4100,987,166,242,39,1
208.8000,0.0500,26.9050,-127.8167,26.3800,960,172,240,40,1
208.9000,0.0500,26.8850,-140.8500,26.3950,973,180,238,41,1
209.0000,0.0500,26.8850,-168.1333,26.4100,972,171,235,42,1
209.1000,0.0500,26.8850,-175.4000,26.4250,972,176,240,43,1
209.2000,0.0500,26.8850,-176.2667,26.3800,960,179,236,44,1
209.3000,0.0500,26.9050,-167.3667,26.4100,971,174,236,45,1
209.4000,0.0333,26.8700,-159.2500,26.3950,950,174,236,46,1
209.5000,0.0333,26.8700,-144.4833,26.4100,981,179,238,47,1
209.6000,0.0500,26.8850,-115.9333,26.3950,964,180,241,48,1
209.7000,0.0500,26.8700,-99.7500,26.3950,972,169,240,49,1
209.8000,0.0667,26.8850,-96.9167,26.3800,975,178,243,50,1
209.9000,0.0667,26.9050,-93.4333,26.3950,955,181,233,51,1
210.0000,0.0667,26.9050,-61.8667,26.4100,965,183,238,52,1
210.1000,0.0500,26.8850,-5.0500,26.4100,967,168,231,53,1
210.2000,0.0667,26.8850,-4.9000,26.3800,964,183,242,54,1
210.3000,0.0833,26.8850,-6.9833,26.3800,972,182,234,55,1
210.4000,0.0667,26.8850,-43.2333,26.3800,966,185,236,56,1
210.5000,0.0667,26.8850,-40.3333,26.3950,960,178,240,57,1
210.6000,0.0833,26.8400,-26.3000,26.4100,970,183,232,58,1
210.7000,0.0667,26.8850,7.1333,26.4100,960,189,231,59,1
210.8000,0.0667,26.8850,6.0000,26.3950,969,174,228,60,1
210.9000,0.0833,26.9050,4.1667,26.3950,972,171,240,61,1
211.0000,0.0667,26.8850,4.0500,26.3800,973,180,225,62,1
211.1000,0.0667,26.8550,-9.5333,26.4100,975,180,234,63,1
